800,0.0896
799,0.0895
798,0.0896
797,0.0899
796,0.0903
795,0.0906
794,0.0911
793,0.0915
792,0.0919
791,0.0923
790,0.0927
789,0.0931
788,0.0936
787,0.094
786,0.0944
785,0.0949
784,0.0953
783,0.0957
782,0.0962
781,0.0966
780,0.097
779,0.0974
778,0.0978
777,0.0982
776,0.0986
775,0.099
774,0.0994
773,0.0997
772,0.1
771,0.1001
770,0.0999
769,0.0994
768,0.0992
767,0.0991
766,0.0992
765,0.0993
764,0.0994
763,0.0994
762,0.0994
761,0.0995
760,0.0995
759,0.0998
758,0.1002
757,0.1005
756,0.1008
755,0.101
754,0.1011
753,0.1011
752,0.1011
751,0.1008
750,0.1004
749,0.1
748,0.0995
747,0.099
746,0.0983
745,0.0974
744,0.0965
743,0.0954
742,0.0942
741,0.0929
740,0.0916
739,0.0905
738,0.0896
737,0.0888
736,0.0879
735,0.0867
734,0.0852
733,0.0834
732,0.0813
731,0.079
730,0.0767
729,0.0745
728,0.0723
727,0.0702
726,0.0683
725,0.0666
724,0.065
723,0.0635
722,0.0621
721,0.0608
720,0.0595
719,0.0583
718,0.0572
717,0.0561
716,0.055
715,0.054
714,0.053
713,0.052
712,0.051
711,0.0503
710,0.0496
709,0.049
708,0.0484
707,0.048
706,0.0475
705,0.0471
704,0.0467
703,0.0462
702,0.0459
701,0.0456
700,0.0453
699,0.0449
698,0.0446
697,0.0443
696,0.0439
695,0.0436
694,0.0432
693,0.0428
692,0.0424
691,0.0419
690,0.0414
689,0.041
688,0.0406
687,0.0403
686,0.04
685,0.0398
684,0.0396
683,0.0395
682,0.0394
681,0.0393
680,0.0393
679,0.0393
678,0.0393
677,0.0393
676,0.0392
675,0.0391
674,0.0389
673,0.0388
672,0.0386
671,0.0385
670,0.0383
669,0.0381
668,0.0379
667,0.0378
666,0.0377
665,0.0376
664,0.0375
663,0.0373
662,0.0372
661,0.0372
660,0.0371
659,0.0371
658,0.037
657,0.037
656,0.0369
655,0.0369
654,0.0368
653,0.0367
652,0.0367
651,0.0366
650,0.0365
649,0.0365
648,0.0364
647,0.0364
646,0.0364
645,0.0364
644,0.0364
643,0.0363
642,0.0362
641,0.036
640,0.0358
639,0.0355
638,0.0353
637,0.035
636,0.0348
635,0.0346
634,0.0345
633,0.0344
632,0.0344
631,0.0343
630,0.0341
629,0.0341
628,0.034
627,0.034
626,0.034
625,0.0339
624,0.0338
623,0.0338
622,0.0338
621,0.0337
620,0.0336
619,0.0335
618,0.0334
617,0.0334
616,0.0333
615,0.0332
614,0.0331
613,0.0331
612,0.033
611,0.0329
610,0.0329
609,0.0329
608,0.0329
607,0.0329
606,0.033
605,0.033
604,0.0329
603,0.0329
602,0.0328
601,0.0328
600,0.0327
599,0.0325
598,0.0322
597,0.032
596,0.0318
595,0.0316
594,0.0315
593,0.0314
592,0.0313
591,0.0311
590,0.0309
589,0.0307
588,0.0304
587,0.03
586,0.0295
585,0.029
584,0.0285
583,0.0279
582,0.0274
581,0.0269
580,0.0265
579,0.0262
578,0.026
577,0.026
576,0.0261
575,0.0262
574,0.0262
573,0.0263
572,0.0263
571,0.0264
570,0.0265
569,0.0266
568,0.0267
567,0.0268
566,0.0268
565,0.0269
564,0.0269
563,0.0269
562,0.027
561,0.0271
560,0.0272
559,0.0273
558,0.0275
557,0.0277
556,0.0279
555,0.0281
554,0.0283
553,0.0286
552,0.0288
551,0.0291
550,0.0293
549,0.0294
548,0.0296
547,0.0297
546,0.0299
545,0.03
544,0.0301
543,0.0301
542,0.0301
541,0.03
540,0.0299
539,0.0298
538,0.0297
537,0.0296
536,0.0296
535,0.0296
534,0.0296
533,0.0296
532,0.0297
531,0.0297
530,0.0298
529,0.0299
528,0.03
527,0.0301
526,0.0302
525,0.0302
524,0.0302
523,0.0302
522,0.0301
521,0.03
520,0.0299
519,0.0298
518,0.0296
517,0.0295
516,0.0294
515,0.0294
514,0.0294
513,0.0293
512,0.0292
511,0.0291
510,0.0289
509,0.0288
508,0.0288
507,0.0287
506,0.0286
505,0.0286
504,0.0286
503,0.0287
502,0.0287
501,0.0287
500,0.0287
499,0.0288
498,0.0288
497,0.0289
496,0.0289
495,0.029
494,0.0292
493,0.0294
492,0.0295
491,0.0297
490,0.0299
489,0.0303
488,0.0306
487,0.031
486,0.0313
485,0.0317
484,0.0321
483,0.0323
482,0.0324
481,0.0325
480,0.0326
479,0.0326
478,0.0327
477,0.0328
476,0.0329
475,0.033
474,0.0331
473,0.0333
472,0.0337
471,0.034
470,0.0344
469,0.0347
468,0.035
467,0.0352
466,0.0355
465,0.0357
464,0.0359
463,0.0361
462,0.0364
461,0.0367
460,0.037
459,0.0373
458,0.0376
457,0.0379
456,0.0382
455,0.0386
454,0.0389
453,0.0393
452,0.0398
451,0.0401
450,0.0405
449,0.041
448,0.0414
447,0.0419
446,0.0423
445,0.0428
444,0.0433
443,0.0438
442,0.0443
441,0.0448
440,0.0454
439,0.046
438,0.0464
437,0.0469
436,0.0476
435,0.0481
434,0.0487
433,0.0494
432,0.0501
431,0.0508
430,0.0515
429,0.0522
428,0.053
427,0.0538
426,0.0546
425,0.0553
424,0.0561
423,0.0568
422,0.0577
421,0.0586
420,0.0596
419,0.0606
418,0.0615
417,0.0624
416,0.0633
415,0.0642
414,0.0651
413,0.066
412,0.0668
411,0.0677
410,0.0686
409,0.0695
408,0.0705
407,0.0715
406,0.0724
405,0.0734
404,0.0744
403,0.0755
402,0.0766
401,0.0777
400,0.0789
399,0.0801
398,0.0813
397,0.0826
396,0.0838
395,0.0851
394,0.0864
393,0.0877
392,0.089
391,0.0902
390,0.0916
389,0.0929
388,0.0944
387,0.0959
386,0.0975
385,0.099
384,0.1006
383,0.1022
382,0.1038
381,0.1056
380,0.1078
379,0.1127
378,0.1195
377,0.1237
376,0.1256
375,0.1275
374,0.1295
373,0.1316
372,0.1336
371,0.1355
370,0.1375
369,0.1396
368,0.1417
367,0.1438
366,0.146
365,0.1483
364,0.1507
363,0.153
362,0.1555
361,0.1581
360,0.1607
359,0.1634
358,0.166
357,0.1687
356,0.1713
355,0.174
354,0.1767
353,0.1794
352,0.182
351,0.1846
350,0.1872
349,0.19
348,0.1931
347,0.1961
346,0.1992
345,0.2024
344,0.2056
343,0.2088
342,0.2122
341,0.2156
340,0.2166
339,0.2149
338,0.2147
337,0.2175
336,0.221
335,0.2246
334,0.2282
333,0.2318
332,0.2356
331,0.2395
330,0.2434
329,0.2473
328,0.2512
327,0.2554
326,0.2599
325,0.2645
324,0.2692
323,0.2741
322,0.2791
321,0.2842
320,0.2895
319,0.2948
318,0.3003
317,0.3058
316,0.3111
315,0.3164
314,0.3219
313,0.3274
312,0.3329
311,0.3384
310,0.344
309,0.3496
308,0.3554
307,0.3617
306,0.3682
305,0.3747
304,0.3812
303,0.3881
302,0.3953
301,0.4028
300,0.4102
299,0.4176
298,0.4251
297,0.4328
296,0.4406
295,0.4485
294,0.4564
293,0.4645
292,0.4727
291,0.4809
290,0.4891
289,0.4975
288,0.5062
287,0.5151
286,0.5242
285,0.5333
284,0.5424
283,0.5516
282,0.5608
281,0.5701
280,0.5794
279,0.5886
278,0.5977
277,0.6068
276,0.6162
275,0.6256
274,0.6347
273,0.6436
272,0.6525
271,0.6612
270,0.6698
269,0.6783
268,0.6868
267,0.6955
266,0.7043
265,0.713
264,0.7216
263,0.7302
262,0.7388
261,0.7474
260,0.756
259,0.7646
258,0.7732
257,0.7822
256,0.7913
255,0.8004
254,0.8096
253,0.8189
252,0.8287
251,0.8388
250,0.8492
249,0.8604
248,0.8726
247,0.8861
246,0.9015
245,0.9187
244,0.9375
243,0.9582
242,0.9818
241,1.0085
240,1.0387
239,1.073
238,1.1123
237,1.1578
236,1.21
235,1.2697
234,1.3379
233,1.4154
232,1.5037
231,1.6059
230,1.7237
229,1.8542
228,2.0002
227,2.1695
226,2.3636
225,2.5818
224,2.8211
223,3.0747
222,3.3471
221,3.6311
220,3.8851
219,4.1114
218,4.2834
217,4.356
216,4.4088
215,4.4209
214,4.4055
213,4.4908
212,4.543
211,4.4577
210,4.4463
209,4.4977
208,4.466
207,4.4785
206,4.5852
205,4.5457
204,4.5026
203,4.5409
202,4.6632
201,5.0222
200,5.0888
199,5.3008
198,10
197,5.7862
196,4.8679
195,5.3154
194,10
193,10
192,10
191,10
190,10
