800,0.0924
799,0.0926
798,0.093
797,0.0934
796,0.0937
795,0.0942
794,0.0946
793,0.095
792,0.0953
791,0.0957
790,0.0961
789,0.0965
788,0.0969
787,0.0973
786,0.0977
785,0.0981
784,0.0985
783,0.0989
782,0.0993
781,0.0997
780,0.1
779,0.1004
778,0.1007
777,0.101
776,0.1013
775,0.1015
774,0.1017
773,0.1019
772,0.1021
771,0.1022
770,0.1024
769,0.1026
768,0.1027
767,0.1028
766,0.1028
765,0.1029
764,0.1029
763,0.103
762,0.103
761,0.103
760,0.1029
759,0.1027
758,0.1025
757,0.1025
756,0.1025
755,0.1025
754,0.1024
753,0.1024
752,0.1024
751,0.1024
750,0.1022
749,0.102
748,0.1018
747,0.1014
746,0.101
745,0.1003
744,0.0995
743,0.0984
742,0.0972
741,0.096
740,0.0948
739,0.0936
738,0.0926
737,0.0915
736,0.0904
735,0.089
734,0.0874
733,0.0854
732,0.0832
731,0.0809
730,0.0785
729,0.0762
728,0.0741
727,0.072
726,0.0701
725,0.0684
724,0.0669
723,0.0654
722,0.0641
721,0.0627
720,0.0614
719,0.0601
718,0.059
717,0.0578
716,0.0567
715,0.0556
714,0.0547
713,0.0537
712,0.0529
711,0.0521
710,0.0514
709,0.0508
708,0.0503
707,0.0498
706,0.0492
705,0.0487
704,0.0482
703,0.0478
702,0.0474
701,0.047
700,0.0466
699,0.0462
698,0.0458
697,0.0454
696,0.0451
695,0.0448
694,0.0445
693,0.0442
692,0.0439
691,0.0436
690,0.0434
689,0.0432
688,0.043
687,0.0427
686,0.0424
685,0.0422
684,0.042
683,0.0419
682,0.0417
681,0.0415
680,0.0414
679,0.0412
678,0.0411
677,0.041
676,0.0409
675,0.0409
674,0.0408
673,0.0407
672,0.0406
671,0.0405
670,0.0404
669,0.0404
668,0.0403
667,0.0401
666,0.0401
665,0.04
664,0.0399
663,0.0398
662,0.0397
661,0.0396
660,0.0394
659,0.0393
658,0.0391
657,0.0389
656,0.0386
655,0.0384
654,0.0382
653,0.038
652,0.0378
651,0.0377
650,0.0376
649,0.0375
648,0.0374
647,0.0373
646,0.0373
645,0.0373
644,0.0373
643,0.0372
642,0.0372
641,0.0372
640,0.0372
639,0.0371
638,0.0371
637,0.0371
636,0.0371
635,0.037
634,0.037
633,0.037
632,0.0369
631,0.0369
630,0.0368
629,0.0367
628,0.0367
627,0.0366
626,0.0366
625,0.0365
624,0.0365
623,0.0365
622,0.0365
621,0.0365
620,0.0365
619,0.0364
618,0.0364
617,0.0365
616,0.0365
615,0.0365
614,0.0365
613,0.0365
612,0.0366
611,0.0366
610,0.0366
609,0.0366
608,0.0365
607,0.0366
606,0.0366
605,0.0366
604,0.0365
603,0.0364
602,0.0364
601,0.0362
600,0.0358
599,0.0353
598,0.035
597,0.0348
596,0.0346
595,0.0345
594,0.0343
593,0.0343
592,0.0342
591,0.034
590,0.0339
589,0.0336
588,0.0334
587,0.033
586,0.0325
585,0.0319
584,0.0313
583,0.0307
582,0.0302
581,0.0298
580,0.0295
579,0.0293
578,0.0292
577,0.0293
576,0.0295
575,0.0296
574,0.0298
573,0.0299
572,0.0299
571,0.03
570,0.0301
569,0.0301
568,0.0302
567,0.0302
566,0.0303
565,0.0304
564,0.0305
563,0.0305
562,0.0306
561,0.0306
560,0.0307
559,0.0308
558,0.0309
557,0.0309
556,0.031
555,0.0311
554,0.0312
553,0.0313
552,0.0315
551,0.0316
550,0.0317
549,0.0318
548,0.032
547,0.0321
546,0.0322
545,0.0324
544,0.0325
543,0.0326
542,0.0327
541,0.0328
540,0.0329
539,0.033
538,0.0331
537,0.0332
536,0.0333
535,0.0334
534,0.0335
533,0.0336
532,0.0337
531,0.0338
530,0.0339
529,0.0341
528,0.0342
527,0.0342
526,0.0343
525,0.0345
524,0.0345
523,0.0346
522,0.0346
521,0.0347
520,0.0347
519,0.0347
518,0.0347
517,0.0347
516,0.0347
515,0.0347
514,0.0348
513,0.0348
512,0.0349
511,0.0349
510,0.035
509,0.035
508,0.035
507,0.0351
506,0.0351
505,0.0352
504,0.0352
503,0.0353
502,0.0354
501,0.0355
500,0.0357
499,0.0359
498,0.0361
497,0.0363
496,0.0366
495,0.0368
494,0.0371
493,0.0374
492,0.0377
491,0.038
490,0.0384
489,0.0387
488,0.0391
487,0.0395
486,0.0399
485,0.0403
484,0.0406
483,0.0409
482,0.0411
481,0.0413
480,0.0415
479,0.0417
478,0.0418
477,0.042
476,0.0422
475,0.0424
474,0.0428
473,0.0431
472,0.0434
471,0.0437
470,0.0441
469,0.0445
468,0.0449
467,0.0454
466,0.0458
465,0.0463
464,0.0468
463,0.0473
462,0.0478
461,0.0482
460,0.0487
459,0.0492
458,0.0496
457,0.0501
456,0.0506
455,0.0512
454,0.0517
453,0.0523
452,0.0529
451,0.0535
450,0.0541
449,0.0547
448,0.0553
447,0.056
446,0.0566
445,0.0572
444,0.0579
443,0.0585
442,0.0592
441,0.06
440,0.0609
439,0.0617
438,0.0626
437,0.0635
436,0.0643
435,0.0652
434,0.066
433,0.0668
432,0.0677
431,0.0685
430,0.0694
429,0.0703
428,0.0713
427,0.0723
426,0.0734
425,0.0744
424,0.0754
423,0.0766
422,0.0777
421,0.0788
420,0.08
419,0.0812
418,0.0824
417,0.0836
416,0.0848
415,0.0861
414,0.0874
413,0.0886
412,0.0898
411,0.091
410,0.0922
409,0.0933
408,0.0945
407,0.0958
406,0.0971
405,0.0985
404,0.1
403,0.1016
402,0.1031
401,0.1046
400,0.106
399,0.1075
398,0.109
397,0.1106
396,0.1123
395,0.114
394,0.1158
393,0.1175
392,0.1192
391,0.1208
390,0.1226
389,0.1243
388,0.1261
387,0.1279
386,0.1299
385,0.132
384,0.1341
383,0.1363
382,0.1385
381,0.1407
380,0.1433
379,0.1485
378,0.1555
377,0.1601
376,0.1625
375,0.165
374,0.1674
373,0.1698
372,0.1724
371,0.175
370,0.1775
369,0.1803
368,0.183
367,0.1857
366,0.1887
365,0.1917
364,0.1947
363,0.1978
362,0.2009
361,0.2041
360,0.2075
359,0.2108
358,0.2141
357,0.2175
356,0.2209
355,0.2243
354,0.2276
353,0.2311
352,0.2346
351,0.238
350,0.2414
349,0.2449
348,0.2485
347,0.2522
346,0.2558
345,0.2596
344,0.2636
343,0.2676
342,0.2717
341,0.2761
340,0.2782
339,0.2774
338,0.2783
337,0.282
336,0.2866
335,0.2912
334,0.2958
333,0.3005
332,0.3051
331,0.3098
330,0.3145
329,0.3192
328,0.3242
327,0.3297
326,0.3353
325,0.341
324,0.3467
323,0.3526
322,0.3586
321,0.3649
320,0.3714
319,0.3778
318,0.3845
317,0.3911
316,0.3977
315,0.4043
314,0.411
313,0.4177
312,0.4245
311,0.4313
310,0.4381
309,0.4449
308,0.4519
307,0.4594
306,0.4671
305,0.4749
304,0.4828
303,0.4908
302,0.4992
301,0.5079
300,0.5166
299,0.5253
298,0.5341
297,0.543
296,0.5521
295,0.5612
294,0.5704
293,0.5799
292,0.5897
291,0.5994
290,0.609
289,0.6187
288,0.6285
287,0.6389
286,0.6495
285,0.6601
284,0.6707
283,0.6813
282,0.6921
281,0.7031
280,0.714
279,0.7247
278,0.7355
277,0.7465
276,0.7576
275,0.7688
274,0.7798
273,0.7905
272,0.8011
271,0.8118
270,0.8223
269,0.8328
268,0.8433
267,0.8542
266,0.8654
265,0.8763
264,0.8872
263,0.8982
262,0.9091
261,0.92
260,0.9308
259,0.9418
258,0.953
257,0.9643
256,0.9754
255,0.9865
254,0.9979
253,1.0095
252,1.0216
251,1.0341
250,1.0472
249,1.0611
248,1.0763
247,1.0933
246,1.1129
245,1.135
244,1.1595
243,1.1868
242,1.2182
241,1.2541
240,1.2953
239,1.3429
238,1.398
237,1.4622
236,1.5365
235,1.6221
234,1.7205
233,1.8335
232,1.963
231,2.112
230,2.2828
229,2.471
228,2.6765
227,2.9068
226,3.1522
225,3.3849
224,3.5738
223,3.7215
222,3.8266
221,3.8695
220,3.8744
219,3.8613
218,3.8608
217,3.868
216,3.882
215,3.9076
214,3.9064
213,3.8921
212,3.8837
211,3.8918
210,3.8961
209,3.8738
208,3.8734
207,3.8984
206,3.917
205,3.8957
204,3.8694
203,3.8881
202,3.8896
201,3.8653
200,3.8621
199,3.8639
198,3.8649
197,3.8651
196,3.8318
195,3.785
194,3.7786
193,3.7614
192,3.693
191,3.6441
190,3.6295
