800,0.0854
799,0.0856
798,0.0858
797,0.0862
796,0.0865
795,0.0869
794,0.0872
793,0.0876
792,0.0879
791,0.0883
790,0.0888
789,0.0892
788,0.0897
787,0.0902
786,0.0906
785,0.0911
784,0.0915
783,0.0919
782,0.0923
781,0.0926
780,0.093
779,0.0934
778,0.0938
777,0.0941
776,0.0944
775,0.0947
774,0.095
773,0.0952
772,0.0955
771,0.0957
770,0.0958
769,0.096
768,0.0962
767,0.0964
766,0.0965
765,0.0966
764,0.0966
763,0.0966
762,0.0967
761,0.0968
760,0.0968
759,0.0967
758,0.0968
757,0.0967
756,0.0967
755,0.0967
754,0.0967
753,0.0966
752,0.0965
751,0.0965
750,0.0964
749,0.0962
748,0.0959
747,0.0955
746,0.095
745,0.0943
744,0.0934
743,0.0924
742,0.0912
741,0.0899
740,0.0886
739,0.0874
738,0.0865
737,0.0856
736,0.0845
735,0.083
734,0.0813
733,0.0794
732,0.0772
731,0.0747
730,0.0724
729,0.0701
728,0.068
727,0.0659
726,0.064
725,0.0624
724,0.0609
723,0.0594
722,0.058
721,0.0567
720,0.0554
719,0.0542
718,0.0531
717,0.052
716,0.0509
715,0.0499
714,0.0489
713,0.048
712,0.0472
711,0.0464
710,0.0457
709,0.0451
708,0.0445
707,0.0441
706,0.0436
705,0.0431
704,0.0426
703,0.0421
702,0.0417
701,0.0413
700,0.0409
699,0.0404
698,0.04
697,0.0396
696,0.0392
695,0.0389
694,0.0385
693,0.0383
692,0.038
691,0.0377
690,0.0374
689,0.0371
688,0.0369
687,0.0367
686,0.0365
685,0.0363
684,0.0361
683,0.0359
682,0.0357
681,0.0356
680,0.0354
679,0.0353
678,0.0352
677,0.0351
676,0.035
675,0.0349
674,0.0349
673,0.0348
672,0.0348
671,0.0347
670,0.0347
669,0.0346
668,0.0345
667,0.0344
666,0.0343
665,0.0343
664,0.0341
663,0.034
662,0.0339
661,0.0337
660,0.0336
659,0.0334
658,0.0332
657,0.033
656,0.0328
655,0.0326
654,0.0324
653,0.0322
652,0.032
651,0.0319
650,0.0318
649,0.0317
648,0.0317
647,0.0316
646,0.0315
645,0.0314
644,0.0314
643,0.0313
642,0.0312
641,0.0311
640,0.0311
639,0.031
638,0.0309
637,0.0309
636,0.0308
635,0.0307
634,0.0306
633,0.0306
632,0.0305
631,0.0304
630,0.0303
629,0.0303
628,0.0303
627,0.0303
626,0.0303
625,0.0302
624,0.0302
623,0.0302
622,0.0302
621,0.0302
620,0.0302
619,0.0301
618,0.0301
617,0.0301
616,0.0302
615,0.0302
614,0.0302
613,0.0301
612,0.0301
611,0.0301
610,0.0301
609,0.03
608,0.03
607,0.03
606,0.03
605,0.03
604,0.0299
603,0.0299
602,0.0298
601,0.0297
600,0.0295
599,0.0292
598,0.0289
597,0.0287
596,0.0286
595,0.0285
594,0.0284
593,0.0283
592,0.0282
591,0.028
590,0.0278
589,0.0276
588,0.0274
587,0.027
586,0.0265
585,0.0259
584,0.0253
583,0.0247
582,0.0243
581,0.0238
580,0.0236
579,0.0234
578,0.0234
577,0.0236
576,0.0238
575,0.024
574,0.0241
573,0.0242
572,0.0243
571,0.0244
570,0.0244
569,0.0245
568,0.0245
567,0.0245
566,0.0246
565,0.0246
564,0.0246
563,0.0246
562,0.0247
561,0.0247
560,0.0248
559,0.0248
558,0.0249
557,0.025
556,0.025
555,0.0251
554,0.0252
553,0.0253
552,0.0254
551,0.0254
550,0.0255
549,0.0256
548,0.0257
547,0.0257
546,0.0257
545,0.0258
544,0.0258
543,0.0259
542,0.026
541,0.026
540,0.0261
539,0.0262
538,0.0263
537,0.0264
536,0.0265
535,0.0267
534,0.0268
533,0.0269
532,0.0271
531,0.0271
530,0.0272
529,0.0273
528,0.0273
527,0.0273
526,0.0274
525,0.0274
524,0.0274
523,0.0274
522,0.0274
521,0.0273
520,0.0273
519,0.0273
518,0.0273
517,0.0273
516,0.0273
515,0.0273
514,0.0273
513,0.0272
512,0.0272
511,0.0272
510,0.0271
509,0.027
508,0.027
507,0.0269
506,0.0269
505,0.0269
504,0.027
503,0.027
502,0.0271
501,0.0272
500,0.0273
499,0.0275
498,0.0277
497,0.0279
496,0.0281
495,0.0283
494,0.0284
493,0.0287
492,0.0289
491,0.0292
490,0.0295
489,0.0298
488,0.0302
487,0.0306
486,0.031
485,0.0314
484,0.0318
483,0.0321
482,0.0323
481,0.0324
480,0.0324
479,0.0325
478,0.0325
477,0.0326
476,0.0328
475,0.033
474,0.0332
473,0.0334
472,0.0337
471,0.0341
470,0.0344
469,0.0348
468,0.0351
467,0.0355
466,0.0358
465,0.0362
464,0.0365
463,0.0368
462,0.0372
461,0.0375
460,0.0378
459,0.0382
458,0.0386
457,0.039
456,0.0394
455,0.0399
454,0.0403
453,0.0407
452,0.0411
451,0.0416
450,0.0419
449,0.0423
448,0.0428
447,0.0432
446,0.0437
445,0.0442
444,0.0447
443,0.0453
442,0.0459
441,0.0465
440,0.0471
439,0.0477
438,0.0483
437,0.0488
436,0.0494
435,0.05
434,0.0506
433,0.0512
432,0.0519
431,0.0527
430,0.0534
429,0.0542
428,0.0549
427,0.0556
426,0.0564
425,0.0572
424,0.058
423,0.0588
422,0.0597
421,0.0605
420,0.0614
419,0.0624
418,0.0634
417,0.0644
416,0.0653
415,0.0663
414,0.0672
413,0.0682
412,0.0691
411,0.07
410,0.0709
409,0.0718
408,0.0727
407,0.0736
406,0.0747
405,0.0757
404,0.0768
403,0.078
402,0.0791
401,0.0803
400,0.0815
399,0.0827
398,0.0839
397,0.0853
396,0.0866
395,0.0879
394,0.0892
393,0.0904
392,0.0917
391,0.093
390,0.0943
389,0.0957
388,0.0971
387,0.0986
386,0.1002
385,0.1018
384,0.1034
383,0.105
382,0.1067
381,0.1085
380,0.1105
379,0.115
378,0.1213
377,0.1254
376,0.1274
375,0.1294
374,0.1313
373,0.1332
372,0.1352
371,0.1372
370,0.139
369,0.1411
368,0.1432
367,0.1454
366,0.1476
365,0.1499
364,0.1523
363,0.1546
362,0.1571
361,0.1597
360,0.1623
359,0.1648
358,0.1675
357,0.1702
356,0.1727
355,0.1754
354,0.1781
353,0.1807
352,0.1834
351,0.1862
350,0.1889
349,0.1917
348,0.1944
347,0.1973
346,0.2003
345,0.2035
344,0.2067
343,0.2096
342,0.2128
341,0.2162
340,0.2175
339,0.216
338,0.216
337,0.2188
336,0.2222
335,0.2258
334,0.2294
333,0.233
332,0.2367
331,0.2404
330,0.2442
329,0.248
328,0.252
327,0.2562
326,0.2606
325,0.2651
324,0.2698
323,0.2746
322,0.2795
321,0.2846
320,0.2898
319,0.2951
318,0.3004
317,0.3057
316,0.3112
315,0.3166
314,0.322
313,0.3275
312,0.3331
311,0.3388
310,0.3446
309,0.3504
308,0.3563
307,0.3626
306,0.3692
305,0.3759
304,0.383
303,0.3902
302,0.3975
301,0.4049
300,0.4124
299,0.42
298,0.4277
297,0.4356
296,0.4436
295,0.4517
294,0.4598
293,0.4679
292,0.4761
291,0.4844
290,0.4926
289,0.501
288,0.5096
287,0.5187
286,0.528
285,0.537
284,0.5459
283,0.5551
282,0.5643
281,0.5735
280,0.5825
279,0.5914
278,0.6004
277,0.6095
276,0.6185
275,0.6274
274,0.6365
273,0.6456
272,0.6544
271,0.6631
270,0.6717
269,0.6801
268,0.6887
267,0.6974
266,0.7062
265,0.7149
264,0.7236
263,0.7322
262,0.7408
261,0.7494
260,0.7578
259,0.7662
258,0.7748
257,0.7835
256,0.7922
255,0.8009
254,0.8097
253,0.8186
252,0.8279
251,0.8375
250,0.8476
249,0.8583
248,0.8699
247,0.8827
246,0.897
245,0.913
244,0.9307
243,0.9506
242,0.9736
241,1.0002
240,1.0298
239,1.0632
238,1.1017
237,1.1462
236,1.1975
235,1.2562
234,1.3233
233,1.4002
232,1.4884
231,1.5886
230,1.7009
229,1.8267
228,1.9698
227,2.137
226,2.3324
225,2.5474
224,2.7699
223,2.9996
222,3.2265
221,3.4184
220,3.5654
219,3.6692
218,3.7295
217,3.7807
216,3.8088
215,3.8017
214,3.7917
213,3.796
212,3.8129
211,3.8129
210,3.7897
209,3.7813
208,3.7864
207,3.7923
206,3.7971
205,3.7926
204,3.7994
203,3.808
202,3.806
201,3.8132
200,3.8
199,3.7819
198,3.7899
197,3.7979
196,3.7858
195,3.7554
194,3.7249
193,3.6998
192,3.6884
191,3.6774
190,3.6494
