800,0.0189
799,0.0191
798,0.0196
797,0.02
796,0.0204
795,0.0208
794,0.0213
793,0.0217
792,0.0222
791,0.0227
790,0.0231
789,0.0235
788,0.0239
787,0.0243
786,0.0248
785,0.0252
784,0.0257
783,0.026
782,0.0265
781,0.027
780,0.0274
779,0.0277
778,0.028
777,0.0283
776,0.0287
775,0.0291
774,0.0295
773,0.0297
772,0.03
771,0.0302
770,0.0303
769,0.0304
768,0.0306
767,0.0308
766,0.0309
765,0.0311
764,0.0312
763,0.0313
762,0.0314
761,0.0315
760,0.0315
759,0.0313
758,0.0312
757,0.0312
756,0.0313
755,0.0314
754,0.0314
753,0.0314
752,0.0313
751,0.0312
750,0.0311
749,0.031
748,0.0309
747,0.0305
746,0.03
745,0.0294
744,0.0285
743,0.0275
742,0.0264
741,0.0252
740,0.024
739,0.0229
738,0.0219
737,0.0209
736,0.0197
735,0.0183
734,0.0166
733,0.0145
732,0.0121
731,0.0097
730,0.0073
729,0.0048
728,0.0025
727,0.0004
726,-0.0015
725,-0.0032
724,-0.0048
723,-0.0063
722,-0.0078
721,-0.0092
720,-0.0106
719,-0.0119
718,-0.0131
717,-0.0143
716,-0.0155
715,-0.0167
714,-0.0177
713,-0.0187
712,-0.0196
711,-0.0204
710,-0.0212
709,-0.022
708,-0.0226
707,-0.0232
706,-0.0238
705,-0.0244
704,-0.0249
703,-0.0254
702,-0.0259
701,-0.0263
700,-0.0267
699,-0.027
698,-0.0274
697,-0.0278
696,-0.0283
695,-0.0286
694,-0.0289
693,-0.0292
692,-0.0295
691,-0.0298
690,-0.03
689,-0.0303
688,-0.0305
687,-0.0306
686,-0.0309
685,-0.031
684,-0.0312
683,-0.0314
682,-0.0315
681,-0.0317
680,-0.0318
679,-0.0319
678,-0.0321
677,-0.0322
676,-0.0323
675,-0.0325
674,-0.0326
673,-0.0328
672,-0.0329
671,-0.033
670,-0.0332
669,-0.0333
668,-0.0333
667,-0.0334
666,-0.0335
665,-0.0336
664,-0.0336
663,-0.0337
662,-0.0338
661,-0.034
660,-0.0342
659,-0.0343
658,-0.0344
657,-0.0346
656,-0.0348
655,-0.035
654,-0.0353
653,-0.0355
652,-0.0357
651,-0.0358
650,-0.036
649,-0.0362
648,-0.0363
647,-0.0365
646,-0.0366
645,-0.0367
644,-0.0368
643,-0.0369
642,-0.037
641,-0.0371
640,-0.0372
639,-0.0373
638,-0.0374
637,-0.0375
636,-0.0376
635,-0.0377
634,-0.0377
633,-0.0378
632,-0.0379
631,-0.038
630,-0.0381
629,-0.0381
628,-0.0382
627,-0.0383
626,-0.0383
625,-0.0383
624,-0.0383
623,-0.0384
622,-0.0384
621,-0.0384
620,-0.0385
619,-0.0385
618,-0.0385
617,-0.0385
616,-0.0385
615,-0.0386
614,-0.0386
613,-0.0386
612,-0.0386
611,-0.0387
610,-0.0387
609,-0.0387
608,-0.0387
607,-0.0387
606,-0.0387
605,-0.0388
604,-0.0389
603,-0.039
602,-0.039
601,-0.0392
600,-0.0396
599,-0.04
598,-0.0403
597,-0.0405
596,-0.0406
595,-0.0408
594,-0.0409
593,-0.0411
592,-0.0412
591,-0.0414
590,-0.0417
589,-0.0419
588,-0.0423
587,-0.0427
586,-0.0432
585,-0.0438
584,-0.0444
583,-0.045
582,-0.0455
581,-0.046
580,-0.0463
579,-0.0465
578,-0.0465
577,-0.0464
576,-0.0462
575,-0.046
574,-0.0459
573,-0.0459
572,-0.0458
571,-0.0458
570,-0.0458
569,-0.0458
568,-0.0459
567,-0.0459
566,-0.0459
565,-0.046
564,-0.046
563,-0.046
562,-0.046
561,-0.046
560,-0.046
559,-0.0461
558,-0.046
557,-0.046
556,-0.046
555,-0.0459
554,-0.0459
553,-0.0459
552,-0.0458
551,-0.0458
550,-0.0457
549,-0.0457
548,-0.0457
547,-0.0457
546,-0.0457
545,-0.0457
544,-0.0457
543,-0.0456
542,-0.0456
541,-0.0456
540,-0.0456
539,-0.0456
538,-0.0456
537,-0.0456
536,-0.0456
535,-0.0456
534,-0.0455
533,-0.0455
532,-0.0454
531,-0.0454
530,-0.0454
529,-0.0454
528,-0.0454
527,-0.0454
526,-0.0455
525,-0.0455
524,-0.0456
523,-0.0456
522,-0.0457
521,-0.0458
520,-0.0459
519,-0.046
518,-0.0461
517,-0.0462
516,-0.0463
515,-0.0464
514,-0.0465
513,-0.0466
512,-0.0467
511,-0.0468
510,-0.0469
509,-0.0471
508,-0.0472
507,-0.0473
506,-0.0474
505,-0.0475
504,-0.0475
503,-0.0475
502,-0.0475
501,-0.0474
500,-0.0474
499,-0.0473
498,-0.0472
497,-0.0471
496,-0.0471
495,-0.047
494,-0.0469
493,-0.0468
492,-0.0466
491,-0.0465
490,-0.0462
489,-0.046
488,-0.0458
487,-0.0456
486,-0.0453
485,-0.045
484,-0.0448
483,-0.0447
482,-0.0447
481,-0.0447
480,-0.0447
479,-0.0448
478,-0.0449
477,-0.045
476,-0.0451
475,-0.0451
474,-0.045
473,-0.0449
472,-0.0448
471,-0.0446
470,-0.0444
469,-0.0442
468,-0.0441
467,-0.0439
466,-0.0437
465,-0.0436
464,-0.0435
463,-0.0433
462,-0.0432
461,-0.043
460,-0.0428
459,-0.0426
458,-0.0424
457,-0.0422
456,-0.042
455,-0.0417
454,-0.0415
453,-0.0413
452,-0.0411
451,-0.0408
450,-0.0406
449,-0.0404
448,-0.0402
447,-0.0399
446,-0.0397
445,-0.0395
444,-0.0392
443,-0.0389
442,-0.0386
441,-0.0383
440,-0.038
439,-0.0376
438,-0.0373
437,-0.0371
436,-0.0368
435,-0.0364
434,-0.0361
433,-0.0358
432,-0.0354
431,-0.035
430,-0.0346
429,-0.0342
428,-0.0338
427,-0.0334
426,-0.033
425,-0.0326
424,-0.0323
423,-0.032
422,-0.0315
421,-0.031
420,-0.0303
419,-0.0298
418,-0.0293
417,-0.0288
416,-0.0283
415,-0.0279
414,-0.0275
413,-0.027
412,-0.0265
411,-0.0261
410,-0.0257
409,-0.0253
408,-0.0248
407,-0.0244
406,-0.0238
405,-0.0232
404,-0.0228
403,-0.0225
402,-0.0219
401,-0.0215
400,-0.0209
399,-0.0202
398,-0.0195
397,-0.019
396,-0.0184
395,-0.0177
394,-0.017
393,-0.0162
392,-0.0156
391,-0.015
390,-0.0143
389,-0.0135
388,-0.0127
387,-0.0119
386,-0.0111
385,-0.0104
384,-0.0097
383,-0.0088
382,-0.0079
381,-0.007
380,-0.0055
379,-0.0015
378,0.0039
377,0.0066
376,0.0071
375,0.008
374,0.009
373,0.0097
372,0.0107
371,0.0119
370,0.0129
369,0.014
368,0.0154
367,0.0167
366,0.018
365,0.0194
364,0.0202
363,0.0209
362,0.0223
361,0.0238
360,0.0254
359,0.0271
358,0.0285
357,0.0295
356,0.0308
355,0.0325
354,0.0339
353,0.0351
352,0.0365
351,0.0381
350,0.04
349,0.042
348,0.0433
347,0.0446
346,0.0457
345,0.0469
344,0.0484
343,0.0502
342,0.052
341,0.0546
340,0.0553
339,0.051
338,0.0481
337,0.0492
336,0.0513
335,0.0532
334,0.0548
333,0.0569
332,0.0592
331,0.061
330,0.0628
329,0.0648
328,0.067
327,0.0692
326,0.0715
325,0.0739
324,0.0764
323,0.0791
322,0.0817
321,0.0844
320,0.0872
319,0.09
318,0.093
317,0.096
316,0.099
315,0.1019
314,0.1049
313,0.1079
312,0.111
311,0.114
310,0.1171
309,0.1205
308,0.1239
307,0.1272
306,0.1307
305,0.1344
304,0.1381
303,0.1418
302,0.1458
301,0.15
300,0.1542
299,0.1585
298,0.1628
297,0.1672
296,0.1717
295,0.1764
294,0.1811
293,0.1859
292,0.1908
291,0.1959
290,0.2009
289,0.2061
288,0.2113
287,0.2166
286,0.2219
285,0.2274
284,0.233
283,0.2386
282,0.2441
281,0.2496
280,0.2551
279,0.2605
278,0.266
277,0.2714
276,0.2767
275,0.282
274,0.2874
273,0.2925
272,0.2976
271,0.3027
270,0.3078
269,0.3129
268,0.3178
267,0.3229
266,0.3281
265,0.3329
264,0.3376
263,0.3426
262,0.3478
261,0.353
260,0.3583
259,0.3635
258,0.3686
257,0.3736
256,0.379
255,0.3843
254,0.3894
253,0.3948
252,0.4005
251,0.4063
250,0.4126
249,0.4192
248,0.4259
247,0.4332
246,0.4411
245,0.4495
244,0.4588
243,0.469
242,0.4805
241,0.4929
240,0.5063
239,0.5211
238,0.5377
237,0.5561
236,0.5764
235,0.5987
234,0.6235
233,0.6511
232,0.6821
231,0.7173
230,0.7576
229,0.8026
228,0.8529
227,0.91
226,0.9751
225,1.0492
224,1.1342
223,1.2331
222,1.3496
221,1.4876
220,1.6482
219,1.8302
218,2.0358
217,2.2739
216,2.5508
215,2.8578
214,3.2306
213,3.8085
212,10
211,10
210,10
209,10
208,10
207,10
206,10
205,10
204,10
203,10
202,10
201,10
200,10
199,10
198,10
197,10
196,10
195,10
194,10
193,10
192,10
191,10
190,10
