800,0.0273
799,0.0273
798,0.0274
797,0.0277
796,0.0281
795,0.0284
794,0.0288
793,0.0291
792,0.0295
791,0.03
790,0.0304
789,0.031
788,0.0315
787,0.0319
786,0.0323
785,0.0328
784,0.0332
783,0.0336
782,0.0341
781,0.0345
780,0.0348
779,0.0352
778,0.0356
777,0.036
776,0.0363
775,0.0366
774,0.0369
773,0.0371
772,0.0373
771,0.0375
770,0.0377
769,0.0379
768,0.0381
767,0.0384
766,0.0386
765,0.0388
764,0.0388
763,0.0389
762,0.039
761,0.0392
760,0.0395
759,0.0402
758,0.0409
757,0.0411
756,0.0412
755,0.0413
754,0.0413
753,0.0413
752,0.0413
751,0.0412
750,0.041
749,0.0407
748,0.0405
747,0.0403
746,0.0399
745,0.0393
744,0.0385
743,0.0375
742,0.0364
741,0.0351
740,0.034
739,0.0328
738,0.0318
737,0.0308
736,0.0297
735,0.0283
734,0.0265
733,0.0244
732,0.022
731,0.0195
730,0.0169
729,0.0144
728,0.012
727,0.0098
726,0.0078
725,0.006
724,0.0043
723,0.0028
722,0.0014
721,-0.0001
720,-0.0014
719,-0.0027
718,-0.0039
717,-0.005
716,-0.0061
715,-0.0072
714,-0.0083
713,-0.0094
712,-0.0103
711,-0.0112
710,-0.0119
709,-0.0126
708,-0.0132
707,-0.0139
706,-0.0145
705,-0.0151
704,-0.0156
703,-0.0162
702,-0.0166
701,-0.0171
700,-0.0176
699,-0.018
698,-0.0185
697,-0.0189
696,-0.0193
695,-0.0196
694,-0.0199
693,-0.0202
692,-0.0205
691,-0.0208
690,-0.021
689,-0.0213
688,-0.0215
687,-0.0217
686,-0.0219
685,-0.0222
684,-0.0224
683,-0.0225
682,-0.0226
681,-0.0227
680,-0.0227
679,-0.0229
678,-0.023
677,-0.0231
676,-0.0233
675,-0.0234
674,-0.0235
673,-0.0235
672,-0.0237
671,-0.0238
670,-0.0239
669,-0.024
668,-0.0241
667,-0.0243
666,-0.0244
665,-0.0244
664,-0.0245
663,-0.0247
662,-0.0249
661,-0.0251
660,-0.0252
659,-0.0253
658,-0.0255
657,-0.0257
656,-0.0259
655,-0.0261
654,-0.0263
653,-0.0264
652,-0.0266
651,-0.0267
650,-0.0268
649,-0.0269
648,-0.0271
647,-0.0272
646,-0.0273
645,-0.0273
644,-0.0274
643,-0.0275
642,-0.0276
641,-0.0276
640,-0.0277
639,-0.0278
638,-0.0279
637,-0.0281
636,-0.0282
635,-0.0283
634,-0.0284
633,-0.0285
632,-0.0287
631,-0.0288
630,-0.0289
629,-0.029
628,-0.029
627,-0.0291
626,-0.0292
625,-0.0293
624,-0.0294
623,-0.0294
622,-0.0295
621,-0.0296
620,-0.0296
619,-0.0296
618,-0.0297
617,-0.0297
616,-0.0297
615,-0.0297
614,-0.0297
613,-0.0297
612,-0.0297
611,-0.0298
610,-0.0299
609,-0.0299
608,-0.03
607,-0.0299
606,-0.0299
605,-0.0299
604,-0.0299
603,-0.03
602,-0.0301
601,-0.0304
600,-0.0312
599,-0.0321
598,-0.0326
597,-0.0329
596,-0.0331
595,-0.0333
594,-0.0335
593,-0.0337
592,-0.0339
591,-0.034
590,-0.0343
589,-0.0345
588,-0.0349
587,-0.0353
586,-0.0358
585,-0.0365
584,-0.0371
583,-0.0377
582,-0.0382
581,-0.0387
580,-0.039
579,-0.0392
578,-0.0393
577,-0.0392
576,-0.0391
575,-0.0389
574,-0.0388
573,-0.0388
572,-0.0387
571,-0.0387
570,-0.0387
569,-0.0386
568,-0.0386
567,-0.0386
566,-0.0387
565,-0.0387
564,-0.0388
563,-0.0388
562,-0.0388
561,-0.0389
560,-0.0389
559,-0.0389
558,-0.0389
557,-0.039
556,-0.039
555,-0.039
554,-0.039
553,-0.039
552,-0.039
551,-0.039
550,-0.0391
549,-0.0391
548,-0.039
547,-0.039
546,-0.039
545,-0.0389
544,-0.0389
543,-0.0389
542,-0.0389
541,-0.0389
540,-0.0389
539,-0.0389
538,-0.0388
537,-0.0388
536,-0.0387
535,-0.0386
534,-0.0386
533,-0.0385
532,-0.0385
531,-0.0384
530,-0.0384
529,-0.0385
528,-0.0385
527,-0.0385
526,-0.0386
525,-0.0387
524,-0.0387
523,-0.0388
522,-0.0388
521,-0.0389
520,-0.0389
519,-0.039
518,-0.039
517,-0.0391
516,-0.0391
515,-0.0392
514,-0.0392
513,-0.0393
512,-0.0394
511,-0.0396
510,-0.0398
509,-0.0399
508,-0.0401
507,-0.0403
506,-0.0404
505,-0.0405
504,-0.0405
503,-0.0406
502,-0.0406
501,-0.0406
500,-0.0406
499,-0.0405
498,-0.0405
497,-0.0405
496,-0.0405
495,-0.0404
494,-0.0403
493,-0.0402
492,-0.0401
491,-0.0399
490,-0.0397
489,-0.0394
488,-0.0392
487,-0.0389
486,-0.0386
485,-0.0383
484,-0.0381
483,-0.0379
482,-0.0379
481,-0.0379
480,-0.038
479,-0.0381
478,-0.0382
477,-0.0383
476,-0.0383
475,-0.0382
474,-0.0381
473,-0.038
472,-0.0378
471,-0.0376
470,-0.0373
469,-0.037
468,-0.0367
467,-0.0364
466,-0.0362
465,-0.0359
464,-0.0356
463,-0.0354
462,-0.0351
461,-0.0349
460,-0.0346
459,-0.0343
458,-0.034
457,-0.0336
456,-0.0332
455,-0.0329
454,-0.0325
453,-0.0322
452,-0.0319
451,-0.0315
450,-0.0311
449,-0.0308
448,-0.0304
447,-0.03
446,-0.0296
445,-0.0293
444,-0.0289
443,-0.0285
442,-0.0281
441,-0.0277
440,-0.0274
439,-0.027
438,-0.0266
437,-0.0261
436,-0.0258
435,-0.0254
434,-0.025
433,-0.0246
432,-0.0241
431,-0.0237
430,-0.0232
429,-0.0227
428,-0.0222
427,-0.0216
426,-0.0211
425,-0.0206
424,-0.0201
423,-0.0195
422,-0.0189
421,-0.0184
420,-0.0177
419,-0.0169
418,-0.0161
417,-0.0154
416,-0.0148
415,-0.0141
414,-0.0135
413,-0.0129
412,-0.0124
411,-0.0117
410,-0.0111
409,-0.0105
408,-0.01
407,-0.0093
406,-0.0086
405,-0.0079
404,-0.0072
403,-0.0064
402,-0.0056
401,-0.0048
400,-0.004
399,-0.0032
398,-0.0024
397,-0.0015
396,-0.0005
395,0.0004
394,0.0014
393,0.0023
392,0.0031
391,0.0041
390,0.005
389,0.006
388,0.0071
387,0.0082
386,0.0094
385,0.0106
384,0.0117
383,0.0129
382,0.0141
381,0.0154
380,0.0172
379,0.0211
378,0.0265
377,0.0295
376,0.0308
375,0.0323
374,0.0338
373,0.0352
372,0.0365
371,0.0382
370,0.0399
369,0.0413
368,0.0428
367,0.0444
366,0.0459
365,0.0476
364,0.0496
363,0.0516
362,0.0535
361,0.0552
360,0.0569
359,0.0588
358,0.0608
357,0.0629
356,0.0651
355,0.0671
354,0.069
353,0.071
352,0.073
351,0.0751
350,0.0772
349,0.0796
348,0.0819
347,0.0837
346,0.0858
345,0.0879
344,0.0901
343,0.0926
342,0.0955
341,0.0988
340,0.0992
339,0.096
338,0.0945
337,0.0964
336,0.099
335,0.1015
334,0.1041
333,0.1067
332,0.1093
331,0.1121
330,0.1148
329,0.1176
328,0.1207
327,0.1239
326,0.1271
325,0.1304
324,0.1339
323,0.1375
322,0.1412
321,0.145
320,0.149
319,0.153
318,0.1569
317,0.1609
316,0.1649
315,0.169
314,0.1732
313,0.1774
312,0.1816
311,0.1859
310,0.1903
309,0.1947
308,0.1993
307,0.2042
306,0.2091
305,0.2143
304,0.2197
303,0.2253
302,0.231
301,0.2368
300,0.2427
299,0.2488
298,0.255
297,0.2613
296,0.2676
295,0.274
294,0.2808
293,0.2878
292,0.295
291,0.3021
290,0.3092
289,0.3164
288,0.3238
287,0.3315
286,0.3392
285,0.3469
284,0.3548
283,0.3628
282,0.3709
281,0.379
280,0.387
279,0.395
278,0.4029
277,0.4108
276,0.4188
275,0.4268
274,0.4347
273,0.4424
272,0.45
271,0.4575
270,0.465
269,0.4725
268,0.4801
267,0.4877
266,0.4952
265,0.5025
264,0.5099
263,0.5175
262,0.525
261,0.5325
260,0.5399
259,0.5475
258,0.555
257,0.5625
256,0.57
255,0.5776
254,0.5853
253,0.5931
252,0.6011
251,0.6093
250,0.618
249,0.6274
248,0.6373
247,0.6476
246,0.6585
245,0.6704
244,0.6833
243,0.6975
242,0.7132
241,0.7299
240,0.7482
239,0.7685
238,0.791
237,0.8159
236,0.8434
235,0.874
234,0.908
233,0.9464
232,0.9901
231,1.038
230,1.0905
229,1.1494
228,1.2158
227,1.29
226,1.3727
225,1.4651
224,1.5681
223,1.682
222,1.8063
221,1.9411
220,2.0864
219,2.2404
218,2.4031
217,2.5765
216,2.7619
215,2.9573
214,3.1583
213,3.3806
212,3.6216
211,3.9412
210,4.8883
209,10
208,10
207,10
206,10
205,10
204,10
203,10
202,10
201,10
200,10
199,10
198,10
197,10
196,10
195,10
194,10
193,10
192,10
191,10
190,10
