800,0.082
799,0.0822
798,0.0825
797,0.0828
796,0.0832
795,0.0836
794,0.084
793,0.0844
792,0.0848
791,0.0852
790,0.0856
789,0.086
788,0.0865
787,0.0869
786,0.0874
785,0.0878
784,0.0882
783,0.0886
782,0.089
781,0.0895
780,0.0899
779,0.0902
778,0.0905
777,0.0909
776,0.0912
775,0.0915
774,0.0918
773,0.092
772,0.0922
771,0.0924
770,0.0926
769,0.0929
768,0.0931
767,0.0932
766,0.0934
765,0.0935
764,0.0936
763,0.0936
762,0.0938
761,0.0939
760,0.0941
759,0.0942
758,0.0944
757,0.0945
756,0.0945
755,0.0946
754,0.0946
753,0.0947
752,0.0947
751,0.0947
750,0.0947
749,0.0945
748,0.0944
747,0.0941
746,0.0937
745,0.0931
744,0.0924
743,0.0914
742,0.0903
741,0.0891
740,0.0879
739,0.0867
738,0.0856
737,0.0847
736,0.0837
735,0.0822
734,0.0804
733,0.0784
732,0.0762
731,0.0738
730,0.0713
729,0.0689
728,0.0666
727,0.0644
726,0.0625
725,0.0608
724,0.0592
723,0.0577
722,0.0563
721,0.0549
720,0.0535
719,0.0523
718,0.0512
717,0.0501
716,0.049
715,0.0479
714,0.0469
713,0.046
712,0.0451
711,0.0443
710,0.0436
709,0.043
708,0.0424
707,0.0418
706,0.0412
705,0.0406
704,0.0401
703,0.0396
702,0.0392
701,0.0388
700,0.0384
699,0.038
698,0.0377
697,0.0373
696,0.037
695,0.0367
694,0.0363
693,0.036
692,0.0356
691,0.0353
690,0.035
689,0.0346
688,0.0343
687,0.034
686,0.0338
685,0.0336
684,0.0333
683,0.0331
682,0.0329
681,0.0328
680,0.0327
679,0.0325
678,0.0324
677,0.0323
676,0.0322
675,0.0321
674,0.032
673,0.0319
672,0.0318
671,0.0317
670,0.0316
669,0.0315
668,0.0314
667,0.0313
666,0.0313
665,0.0312
664,0.0311
663,0.031
662,0.0309
661,0.0307
660,0.0306
659,0.0304
658,0.0303
657,0.0301
656,0.0298
655,0.0296
654,0.0294
653,0.0292
652,0.029
651,0.0289
650,0.0289
649,0.0287
648,0.0286
647,0.0286
646,0.0286
645,0.0285
644,0.0284
643,0.0283
642,0.0283
641,0.0281
640,0.028
639,0.028
638,0.0279
637,0.0278
636,0.0277
635,0.0276
634,0.0276
633,0.0275
632,0.0274
631,0.0273
630,0.0273
629,0.0272
628,0.0272
627,0.0271
626,0.0271
625,0.0271
624,0.027
623,0.027
622,0.027
621,0.0269
620,0.0269
619,0.0269
618,0.0268
617,0.0268
616,0.0268
615,0.0267
614,0.0267
613,0.0266
612,0.0266
611,0.0265
610,0.0265
609,0.0265
608,0.0264
607,0.0264
606,0.0264
605,0.0264
604,0.0264
603,0.0263
602,0.0263
601,0.0261
600,0.0257
599,0.0253
598,0.0251
597,0.0249
596,0.0247
595,0.0245
594,0.0243
593,0.0241
592,0.024
591,0.0238
590,0.0235
589,0.0233
588,0.0229
587,0.0225
586,0.022
585,0.0214
584,0.0209
583,0.0203
582,0.0198
581,0.0194
580,0.0191
579,0.0188
578,0.0188
577,0.0188
576,0.019
575,0.0191
574,0.0192
573,0.0192
572,0.0192
571,0.0192
570,0.0192
569,0.0191
568,0.0191
567,0.0191
566,0.019
565,0.019
564,0.019
563,0.019
562,0.0191
561,0.0191
560,0.0191
559,0.0191
558,0.0191
557,0.0192
556,0.0192
555,0.0193
554,0.0194
553,0.0194
552,0.0194
551,0.0195
550,0.0195
549,0.0195
548,0.0195
547,0.0195
546,0.0195
545,0.0195
544,0.0195
543,0.0195
542,0.0195
541,0.0196
540,0.0196
539,0.0197
538,0.0197
537,0.0198
536,0.0199
535,0.02
534,0.0201
533,0.0202
532,0.0202
531,0.0203
530,0.0203
529,0.0203
528,0.0203
527,0.0202
526,0.0202
525,0.0201
524,0.02
523,0.0199
522,0.0199
521,0.0198
520,0.0197
519,0.0197
518,0.0196
517,0.0195
516,0.0195
515,0.0194
514,0.0193
513,0.0192
512,0.0191
511,0.0189
510,0.0188
509,0.0186
508,0.0185
507,0.0184
506,0.0183
505,0.0182
504,0.0182
503,0.0181
502,0.0181
501,0.0181
500,0.0182
499,0.0182
498,0.0183
497,0.0183
496,0.0184
495,0.0185
494,0.0186
493,0.0186
492,0.0188
491,0.0189
490,0.019
489,0.0192
488,0.0195
487,0.0198
486,0.0201
485,0.0203
484,0.0205
483,0.0206
482,0.0206
481,0.0206
480,0.0205
479,0.0204
478,0.0203
477,0.0202
476,0.0202
475,0.0202
474,0.0202
473,0.0203
472,0.0205
471,0.0207
470,0.0208
469,0.021
468,0.0212
467,0.0214
466,0.0216
465,0.0218
464,0.0219
463,0.022
462,0.0221
461,0.0223
460,0.0224
459,0.0226
458,0.0229
457,0.0231
456,0.0233
455,0.0235
454,0.0237
453,0.0239
452,0.0241
451,0.0243
450,0.0245
449,0.0247
448,0.0249
447,0.0251
446,0.0253
445,0.0256
444,0.0258
443,0.0261
442,0.0264
441,0.0266
440,0.0269
439,0.0271
438,0.0273
437,0.0276
436,0.0279
435,0.0282
434,0.0285
433,0.0289
432,0.0292
431,0.0296
430,0.03
429,0.0303
428,0.0307
427,0.031
426,0.0314
425,0.0317
424,0.0321
423,0.0325
422,0.0329
421,0.0333
420,0.0337
419,0.0342
418,0.0346
417,0.0351
416,0.0355
415,0.0359
414,0.0364
413,0.0369
412,0.0372
411,0.0376
410,0.0381
409,0.0385
408,0.039
407,0.0395
406,0.0399
405,0.0404
404,0.0409
403,0.0414
402,0.0419
401,0.0425
400,0.043
399,0.0436
398,0.0443
397,0.0449
396,0.0455
395,0.0462
394,0.0468
393,0.0474
392,0.0479
391,0.0486
390,0.0493
389,0.05
388,0.0507
387,0.0515
386,0.0523
385,0.0531
384,0.0539
383,0.0548
382,0.0556
381,0.0564
380,0.0577
379,0.0611
378,0.0659
377,0.0684
376,0.0693
375,0.0703
374,0.0712
373,0.0721
372,0.073
371,0.0741
370,0.0753
369,0.0765
368,0.0775
367,0.0786
366,0.0797
365,0.0809
364,0.0821
363,0.0835
362,0.0848
361,0.086
360,0.0873
359,0.0887
358,0.09
357,0.0912
356,0.0925
355,0.0939
354,0.0953
353,0.0967
352,0.0981
351,0.0995
350,0.101
349,0.1025
348,0.104
347,0.1055
346,0.1071
345,0.1086
344,0.1099
343,0.1115
342,0.1135
341,0.1154
340,0.115
339,0.112
338,0.1105
337,0.1116
336,0.1134
335,0.1151
334,0.1169
333,0.1187
332,0.1206
331,0.1225
330,0.1246
329,0.1267
328,0.1288
327,0.131
326,0.1333
325,0.1356
324,0.1382
323,0.1408
322,0.1435
321,0.1462
320,0.1489
319,0.1516
318,0.1543
317,0.1571
316,0.1599
315,0.1628
314,0.1657
313,0.1687
312,0.1717
311,0.1747
310,0.1777
309,0.1807
308,0.1838
307,0.1871
306,0.1906
305,0.1942
304,0.1978
303,0.2015
302,0.2055
301,0.2096
300,0.2138
299,0.2179
298,0.2222
297,0.2265
296,0.2309
295,0.2355
294,0.24
293,0.2445
292,0.2492
291,0.2539
290,0.2586
289,0.2634
288,0.2683
287,0.2733
286,0.2784
285,0.2836
284,0.2889
283,0.2941
282,0.2993
281,0.3045
280,0.3096
279,0.3147
278,0.3198
277,0.3248
276,0.3297
275,0.3346
274,0.3396
273,0.3444
272,0.3492
271,0.354
270,0.3587
269,0.3633
268,0.3681
267,0.373
266,0.3779
265,0.3826
264,0.3874
263,0.3922
262,0.397
261,0.4018
260,0.4066
259,0.4114
258,0.4165
257,0.4216
256,0.4266
255,0.4317
254,0.4368
253,0.4421
252,0.4476
251,0.4534
250,0.4594
249,0.4657
248,0.4726
247,0.4801
246,0.4883
245,0.4973
244,0.5072
243,0.5182
242,0.5307
241,0.5448
240,0.5603
239,0.5775
238,0.597
237,0.619
236,0.6439
235,0.6721
234,0.7038
233,0.7397
232,0.7805
231,0.8265
230,0.8781
229,0.9363
228,1.0028
227,1.0798
226,1.1677
225,1.268
224,1.3829
223,1.5104
222,1.6499
221,1.8044
220,1.9737
219,2.1574
218,2.3574
217,2.5759
216,2.8165
215,3.0867
214,3.396
213,3.7692
212,4.3453
211,10
210,10
209,10
208,10
207,10
206,10
205,10
204,10
203,10
202,10
201,10
200,10
199,10
198,10
197,10
196,10
195,10
194,10
193,10
192,10
191,10
190,10
