800.0,0.0882
799.0,0.0884
798.0,0.0887
797.0,0.0890
796.0,0.0895
795.0,0.0899
794.0,0.0904
793.0,0.0908
792.0,0.0912
791.0,0.0916
790.0,0.0920
789.0,0.0923
788.0,0.0927
787.0,0.0932
786.0,0.0937
785.0,0.0942
784.0,0.0945
783.0,0.0949
782.0,0.0953
781.0,0.0956
780.0,0.0960
779.0,0.0964
778.0,0.0967
777.0,0.0970
776.0,0.0974
775.0,0.0977
774.0,0.0979
773.0,0.0982
772.0,0.0985
771.0,0.0987
770.0,0.0989
769.0,0.0990
768.0,0.0992
767.0,0.0993
766.0,0.0995
765.0,0.0997
764.0,0.1000
763.0,0.1001
762.0,0.1002
761.0,0.1003
760.0,0.1005
759.0,0.1006
758.0,0.1008
757.0,0.1009
756.0,0.1010
755.0,0.1010
754.0,0.1011
753.0,0.1011
752.0,0.1012
751.0,0.1012
750.0,0.1012
749.0,0.1011
748.0,0.1010
747.0,0.1007
746.0,0.1002
745.0,0.0996
744.0,0.0988
743.0,0.0979
742.0,0.0968
741.0,0.0957
740.0,0.0946
739.0,0.0935
738.0,0.0926
737.0,0.0916
736.0,0.0906
735.0,0.0892
734.0,0.0874
733.0,0.0854
732.0,0.0830
731.0,0.0805
730.0,0.0780
729.0,0.0757
728.0,0.0733
727.0,0.0710
726.0,0.0690
725.0,0.0673
724.0,0.0658
723.0,0.0642
722.0,0.0627
721.0,0.0613
720.0,0.0600
719.0,0.0587
718.0,0.0575
717.0,0.0564
716.0,0.0553
715.0,0.0542
714.0,0.0532
713.0,0.0522
712.0,0.0513
711.0,0.0505
710.0,0.0497
709.0,0.0490
708.0,0.0484
707.0,0.0477
706.0,0.0472
705.0,0.0466
704.0,0.0461
703.0,0.0455
702.0,0.0450
701.0,0.0446
700.0,0.0442
699.0,0.0437
698.0,0.0433
697.0,0.0429
696.0,0.0426
695.0,0.0422
694.0,0.0419
693.0,0.0416
692.0,0.0413
691.0,0.0410
690.0,0.0407
689.0,0.0404
688.0,0.0403
687.0,0.0401
686.0,0.0399
685.0,0.0397
684.0,0.0395
683.0,0.0394
682.0,0.0392
681.0,0.0391
680.0,0.0390
679.0,0.0389
678.0,0.0387
677.0,0.0387
676.0,0.0386
675.0,0.0385
674.0,0.0384
673.0,0.0383
672.0,0.0383
671.0,0.0382
670.0,0.0381
669.0,0.0379
668.0,0.0379
667.0,0.0378
666.0,0.0377
665.0,0.0376
664.0,0.0376
663.0,0.0375
662.0,0.0374
661.0,0.0372
660.0,0.0371
659.0,0.0369
658.0,0.0368
657.0,0.0366
656.0,0.0363
655.0,0.0361
654.0,0.0359
653.0,0.0357
652.0,0.0356
651.0,0.0355
650.0,0.0354
649.0,0.0353
648.0,0.0352
647.0,0.0351
646.0,0.0351
645.0,0.0351
644.0,0.0350
643.0,0.0349
642.0,0.0347
641.0,0.0346
640.0,0.0345
639.0,0.0344
638.0,0.0343
637.0,0.0342
636.0,0.0342
635.0,0.0341
634.0,0.0340
633.0,0.0339
632.0,0.0339
631.0,0.0338
630.0,0.0337
629.0,0.0337
628.0,0.0337
627.0,0.0336
626.0,0.0336
625.0,0.0335
624.0,0.0335
623.0,0.0334
622.0,0.0334
621.0,0.0333
620.0,0.0333
619.0,0.0333
618.0,0.0333
617.0,0.0332
616.0,0.0332
615.0,0.0332
614.0,0.0332
613.0,0.0331
612.0,0.0331
611.0,0.0331
610.0,0.0330
609.0,0.0330
608.0,0.0329
607.0,0.0329
606.0,0.0329
605.0,0.0328
604.0,0.0327
603.0,0.0327
602.0,0.0326
601.0,0.0324
600.0,0.0319
599.0,0.0314
598.0,0.0311
597.0,0.0309
596.0,0.0307
595.0,0.0305
594.0,0.0303
593.0,0.0302
592.0,0.0300
591.0,0.0299
590.0,0.0297
589.0,0.0294
588.0,0.0291
587.0,0.0287
586.0,0.0281
585.0,0.0276
584.0,0.0269
583.0,0.0263
582.0,0.0258
581.0,0.0253
580.0,0.0250
579.0,0.0249
578.0,0.0248
577.0,0.0249
576.0,0.0251
575.0,0.0252
574.0,0.0253
573.0,0.0254
572.0,0.0254
571.0,0.0254
570.0,0.0254
569.0,0.0254
568.0,0.0255
567.0,0.0255
566.0,0.0255
565.0,0.0255
564.0,0.0254
563.0,0.0254
562.0,0.0254
561.0,0.0254
560.0,0.0254
559.0,0.0254
558.0,0.0254
557.0,0.0254
556.0,0.0254
555.0,0.0254
554.0,0.0255
553.0,0.0255
552.0,0.0256
551.0,0.0256
550.0,0.0256
549.0,0.0256
548.0,0.0256
547.0,0.0256
546.0,0.0256
545.0,0.0256
544.0,0.0256
543.0,0.0256
542.0,0.0256
541.0,0.0256
540.0,0.0256
539.0,0.0256
538.0,0.0257
537.0,0.0257
536.0,0.0257
535.0,0.0258
534.0,0.0258
533.0,0.0259
532.0,0.0259
531.0,0.0259
530.0,0.0259
529.0,0.0260
528.0,0.0260
527.0,0.0260
526.0,0.0259
525.0,0.0259
524.0,0.0258
523.0,0.0258
522.0,0.0257
521.0,0.0256
520.0,0.0256
519.0,0.0255
518.0,0.0255
517.0,0.0254
516.0,0.0254
515.0,0.0253
514.0,0.0253
513.0,0.0252
512.0,0.0251
511.0,0.0250
510.0,0.0249
509.0,0.0248
508.0,0.0246
507.0,0.0245
506.0,0.0245
505.0,0.0244
504.0,0.0243
503.0,0.0243
502.0,0.0243
501.0,0.0243
500.0,0.0244
499.0,0.0245
498.0,0.0245
497.0,0.0246
496.0,0.0247
495.0,0.0249
494.0,0.0250
493.0,0.0251
492.0,0.0253
491.0,0.0255
490.0,0.0256
489.0,0.0258
488.0,0.0261
487.0,0.0264
486.0,0.0267
485.0,0.0269
484.0,0.0272
483.0,0.0273
482.0,0.0273
481.0,0.0273
480.0,0.0273
479.0,0.0272
478.0,0.0271
477.0,0.0271
476.0,0.0270
475.0,0.0271
474.0,0.0271
473.0,0.0272
472.0,0.0273
471.0,0.0275
470.0,0.0277
469.0,0.0279
468.0,0.0281
467.0,0.0283
466.0,0.0285
465.0,0.0287
464.0,0.0288
463.0,0.0289
462.0,0.0291
461.0,0.0293
460.0,0.0294
459.0,0.0296
458.0,0.0298
457.0,0.0300
456.0,0.0302
455.0,0.0304
454.0,0.0307
453.0,0.0309
452.0,0.0311
451.0,0.0313
450.0,0.0315
449.0,0.0317
448.0,0.0319
447.0,0.0321
446.0,0.0323
445.0,0.0326
444.0,0.0329
443.0,0.0332
442.0,0.0334
441.0,0.0337
440.0,0.0340
439.0,0.0343
438.0,0.0346
437.0,0.0350
436.0,0.0353
435.0,0.0355
434.0,0.0359
433.0,0.0362
432.0,0.0366
431.0,0.0370
430.0,0.0373
429.0,0.0377
428.0,0.0381
427.0,0.0385
426.0,0.0389
425.0,0.0393
424.0,0.0396
423.0,0.0400
422.0,0.0405
421.0,0.0409
420.0,0.0414
419.0,0.0419
418.0,0.0424
417.0,0.0429
416.0,0.0434
415.0,0.0439
414.0,0.0443
413.0,0.0448
412.0,0.0453
411.0,0.0456
410.0,0.0460
409.0,0.0464
408.0,0.0469
407.0,0.0474
406.0,0.0480
405.0,0.0485
404.0,0.0490
403.0,0.0495
402.0,0.0501
401.0,0.0506
400.0,0.0512
399.0,0.0518
398.0,0.0525
397.0,0.0531
396.0,0.0538
395.0,0.0545
394.0,0.0552
393.0,0.0559
392.0,0.0565
391.0,0.0571
390.0,0.0578
389.0,0.0586
388.0,0.0593
387.0,0.0601
386.0,0.0610
385.0,0.0618
384.0,0.0626
383.0,0.0634
382.0,0.0643
381.0,0.0652
380.0,0.0665
379.0,0.0698
378.0,0.0745
377.0,0.0772
376.0,0.0782
375.0,0.0792
374.0,0.0802
373.0,0.0811
372.0,0.0821
371.0,0.0831
370.0,0.0841
369.0,0.0853
368.0,0.0865
367.0,0.0877
366.0,0.0889
365.0,0.0903
364.0,0.0915
363.0,0.0928
362.0,0.0941
361.0,0.0955
360.0,0.0970
359.0,0.0985
358.0,0.0999
357.0,0.1012
356.0,0.1027
355.0,0.1041
354.0,0.1055
353.0,0.1068
352.0,0.1081
351.0,0.1096
350.0,0.1113
349.0,0.1129
348.0,0.1144
347.0,0.1158
346.0,0.1174
345.0,0.1191
344.0,0.1208
343.0,0.1225
342.0,0.1242
341.0,0.1260
340.0,0.1258
339.0,0.1228
338.0,0.1210
337.0,0.1221
336.0,0.1240
335.0,0.1260
334.0,0.1278
333.0,0.1297
332.0,0.1316
331.0,0.1335
330.0,0.1355
329.0,0.1376
328.0,0.1397
327.0,0.1420
326.0,0.1443
325.0,0.1467
324.0,0.1492
323.0,0.1517
322.0,0.1543
321.0,0.1570
320.0,0.1597
319.0,0.1625
318.0,0.1654
317.0,0.1683
316.0,0.1712
315.0,0.1740
314.0,0.1768
313.0,0.1797
312.0,0.1826
311.0,0.1856
310.0,0.1886
309.0,0.1916
308.0,0.1948
307.0,0.1981
306.0,0.2014
305.0,0.2049
304.0,0.2085
303.0,0.2122
302.0,0.2161
301.0,0.2201
300.0,0.2242
299.0,0.2282
298.0,0.2323
297.0,0.2365
296.0,0.2407
295.0,0.2451
294.0,0.2495
293.0,0.2540
292.0,0.2584
291.0,0.2631
290.0,0.2678
289.0,0.2726
288.0,0.2775
287.0,0.2824
286.0,0.2874
285.0,0.2923
284.0,0.2974
283.0,0.3025
282.0,0.3076
281.0,0.3128
280.0,0.3179
279.0,0.3230
278.0,0.3282
277.0,0.3334
276.0,0.3386
275.0,0.3438
274.0,0.3490
273.0,0.3540
272.0,0.3590
271.0,0.3639
270.0,0.3688
269.0,0.3737
268.0,0.3786
267.0,0.3835
266.0,0.3884
265.0,0.3932
264.0,0.3980
263.0,0.4027
262.0,0.4076
261.0,0.4125
260.0,0.4173
259.0,0.4221
258.0,0.4270
257.0,0.4320
256.0,0.4370
255.0,0.4419
254.0,0.4470
253.0,0.4522
252.0,0.4577
251.0,0.4633
250.0,0.4692
249.0,0.4755
248.0,0.4824
247.0,0.4900
246.0,0.4983
245.0,0.5072
244.0,0.5171
243.0,0.5282
242.0,0.5405
241.0,0.5543
240.0,0.5697
239.0,0.5870
238.0,0.6067
237.0,0.6290
236.0,0.6544
235.0,0.6832
234.0,0.7157
233.0,0.7526
232.0,0.7946
231.0,0.8429
230.0,0.8983
229.0,0.9598
228.0,1.0293
227.0,1.1095
226.0,1.2002
225.0,1.3016
224.0,1.4148
223.0,1.5407
222.0,1.6793
221.0,1.8301
220.0,1.9916
219.0,2.1622
218.0,2.3419
217.0,2.5301
216.0,2.7237
215.0,2.9199
214.0,3.1248
213.0,3.3432
212.0,3.5489
211.0,3.7590
210.0,4.0483
209.0,4.4627
208.0,5.6206
207.0,10.0000
206.0,10.0000
205.0,10.0000
204.0,10.0000
203.0,10.0000
202.0,10.0000
201.0,10.0000
200.0,10.0000
199.0,10.0000
198.0,10.0000
197.0,10.0000
196.0,10.0000
195.0,10.0000
194.0,10.0000
193.0,10.0000
192.0,10.0000
191.0,10.0000
190.0,10.0000
