800.0,0.0135
799.0,0.0135
798.0,0.0137
797.0,0.0140
796.0,0.0143
795.0,0.0147
794.0,0.0151
793.0,0.0155
792.0,0.0159
791.0,0.0162
790.0,0.0167
789.0,0.0171
788.0,0.0176
787.0,0.0180
786.0,0.0185
785.0,0.0188
784.0,0.0192
783.0,0.0196
782.0,0.0200
781.0,0.0204
780.0,0.0208
779.0,0.0211
778.0,0.0214
777.0,0.0217
776.0,0.0220
775.0,0.0222
774.0,0.0225
773.0,0.0227
772.0,0.0230
771.0,0.0232
770.0,0.0233
769.0,0.0235
768.0,0.0237
767.0,0.0238
766.0,0.0240
765.0,0.0241
764.0,0.0242
763.0,0.0243
762.0,0.0244
761.0,0.0245
760.0,0.0246
759.0,0.0249
758.0,0.0251
757.0,0.0251
756.0,0.0252
755.0,0.0253
754.0,0.0254
753.0,0.0254
752.0,0.0254
751.0,0.0254
750.0,0.0253
749.0,0.0252
748.0,0.0250
747.0,0.0247
746.0,0.0242
745.0,0.0236
744.0,0.0228
743.0,0.0218
742.0,0.0207
741.0,0.0195
740.0,0.0183
739.0,0.0172
738.0,0.0161
737.0,0.0152
736.0,0.0140
735.0,0.0126
734.0,0.0108
733.0,0.0088
732.0,0.0066
731.0,0.0042
730.0,0.0017
729.0,-0.0007
728.0,-0.0030
727.0,-0.0051
726.0,-0.0070
725.0,-0.0087
724.0,-0.0104
723.0,-0.0118
722.0,-0.0132
721.0,-0.0145
720.0,-0.0158
719.0,-0.0171
718.0,-0.0183
717.0,-0.0194
716.0,-0.0205
715.0,-0.0215
714.0,-0.0226
713.0,-0.0236
712.0,-0.0245
711.0,-0.0253
710.0,-0.0260
709.0,-0.0267
708.0,-0.0273
707.0,-0.0279
706.0,-0.0285
705.0,-0.0291
704.0,-0.0297
703.0,-0.0302
702.0,-0.0306
701.0,-0.0311
700.0,-0.0315
699.0,-0.0319
698.0,-0.0323
697.0,-0.0327
696.0,-0.0331
695.0,-0.0334
694.0,-0.0337
693.0,-0.0340
692.0,-0.0343
691.0,-0.0346
690.0,-0.0349
689.0,-0.0351
688.0,-0.0352
687.0,-0.0355
686.0,-0.0357
685.0,-0.0359
684.0,-0.0361
683.0,-0.0362
682.0,-0.0364
681.0,-0.0366
680.0,-0.0368
679.0,-0.0369
678.0,-0.0370
677.0,-0.0371
676.0,-0.0373
675.0,-0.0374
674.0,-0.0375
673.0,-0.0376
672.0,-0.0377
671.0,-0.0378
670.0,-0.0379
669.0,-0.0380
668.0,-0.0381
667.0,-0.0382
666.0,-0.0383
665.0,-0.0383
664.0,-0.0384
663.0,-0.0385
662.0,-0.0387
661.0,-0.0388
660.0,-0.0389
659.0,-0.0391
658.0,-0.0393
657.0,-0.0395
656.0,-0.0397
655.0,-0.0399
654.0,-0.0401
653.0,-0.0403
652.0,-0.0405
651.0,-0.0407
650.0,-0.0408
649.0,-0.0410
648.0,-0.0411
647.0,-0.0412
646.0,-0.0413
645.0,-0.0414
644.0,-0.0414
643.0,-0.0416
642.0,-0.0417
641.0,-0.0418
640.0,-0.0419
639.0,-0.0420
638.0,-0.0420
637.0,-0.0422
636.0,-0.0422
635.0,-0.0423
634.0,-0.0424
633.0,-0.0425
632.0,-0.0425
631.0,-0.0426
630.0,-0.0427
629.0,-0.0428
628.0,-0.0428
627.0,-0.0429
626.0,-0.0430
625.0,-0.0430
624.0,-0.0431
623.0,-0.0432
622.0,-0.0432
621.0,-0.0433
620.0,-0.0434
619.0,-0.0434
618.0,-0.0435
617.0,-0.0435
616.0,-0.0436
615.0,-0.0436
614.0,-0.0437
613.0,-0.0437
612.0,-0.0437
611.0,-0.0437
610.0,-0.0438
609.0,-0.0438
608.0,-0.0438
607.0,-0.0438
606.0,-0.0438
605.0,-0.0439
604.0,-0.0440
603.0,-0.0440
602.0,-0.0441
601.0,-0.0443
600.0,-0.0447
599.0,-0.0451
598.0,-0.0455
597.0,-0.0457
596.0,-0.0459
595.0,-0.0462
594.0,-0.0463
593.0,-0.0465
592.0,-0.0467
591.0,-0.0469
590.0,-0.0471
589.0,-0.0474
588.0,-0.0477
587.0,-0.0482
586.0,-0.0487
585.0,-0.0493
584.0,-0.0499
583.0,-0.0505
582.0,-0.0510
581.0,-0.0515
580.0,-0.0518
579.0,-0.0521
578.0,-0.0522
577.0,-0.0522
576.0,-0.0521
575.0,-0.0520
574.0,-0.0520
573.0,-0.0520
572.0,-0.0520
571.0,-0.0520
570.0,-0.0520
569.0,-0.0520
568.0,-0.0520
567.0,-0.0521
566.0,-0.0521
565.0,-0.0521
564.0,-0.0521
563.0,-0.0522
562.0,-0.0522
561.0,-0.0522
560.0,-0.0522
559.0,-0.0522
558.0,-0.0523
557.0,-0.0523
556.0,-0.0523
555.0,-0.0523
554.0,-0.0523
553.0,-0.0523
552.0,-0.0523
551.0,-0.0524
550.0,-0.0524
549.0,-0.0524
548.0,-0.0524
547.0,-0.0524
546.0,-0.0524
545.0,-0.0524
544.0,-0.0524
543.0,-0.0524
542.0,-0.0524
541.0,-0.0524
540.0,-0.0525
539.0,-0.0525
538.0,-0.0525
537.0,-0.0525
536.0,-0.0526
535.0,-0.0526
534.0,-0.0526
533.0,-0.0526
532.0,-0.0526
531.0,-0.0527
530.0,-0.0527
529.0,-0.0528
528.0,-0.0528
527.0,-0.0529
526.0,-0.0530
525.0,-0.0530
524.0,-0.0531
523.0,-0.0533
522.0,-0.0534
521.0,-0.0535
520.0,-0.0536
519.0,-0.0538
518.0,-0.0539
517.0,-0.0541
516.0,-0.0543
515.0,-0.0544
514.0,-0.0546
513.0,-0.0548
512.0,-0.0549
511.0,-0.0551
510.0,-0.0553
509.0,-0.0555
508.0,-0.0557
507.0,-0.0558
506.0,-0.0560
505.0,-0.0561
504.0,-0.0563
503.0,-0.0564
502.0,-0.0565
501.0,-0.0566
500.0,-0.0567
499.0,-0.0567
498.0,-0.0568
497.0,-0.0568
496.0,-0.0568
495.0,-0.0568
494.0,-0.0568
493.0,-0.0567
492.0,-0.0567
491.0,-0.0566
490.0,-0.0565
489.0,-0.0564
488.0,-0.0563
487.0,-0.0561
486.0,-0.0559
485.0,-0.0558
484.0,-0.0557
483.0,-0.0558
482.0,-0.0558
481.0,-0.0560
480.0,-0.0563
479.0,-0.0565
478.0,-0.0567
477.0,-0.0569
476.0,-0.0570
475.0,-0.0571
474.0,-0.0572
473.0,-0.0572
472.0,-0.0572
471.0,-0.0572
470.0,-0.0573
469.0,-0.0573
468.0,-0.0573
467.0,-0.0573
466.0,-0.0573
465.0,-0.0572
464.0,-0.0572
463.0,-0.0573
462.0,-0.0573
461.0,-0.0573
460.0,-0.0573
459.0,-0.0573
458.0,-0.0573
457.0,-0.0573
456.0,-0.0573
455.0,-0.0573
454.0,-0.0573
453.0,-0.0573
452.0,-0.0573
451.0,-0.0573
450.0,-0.0573
449.0,-0.0572
448.0,-0.0572
447.0,-0.0572
446.0,-0.0573
445.0,-0.0573
444.0,-0.0573
443.0,-0.0572
442.0,-0.0572
441.0,-0.0572
440.0,-0.0572
439.0,-0.0572
438.0,-0.0572
437.0,-0.0571
436.0,-0.0571
435.0,-0.0572
434.0,-0.0571
433.0,-0.0571
432.0,-0.0570
431.0,-0.0569
430.0,-0.0569
429.0,-0.0569
428.0,-0.0569
427.0,-0.0569
426.0,-0.0568
425.0,-0.0568
424.0,-0.0568
423.0,-0.0568
422.0,-0.0567
421.0,-0.0566
420.0,-0.0566
419.0,-0.0565
418.0,-0.0564
417.0,-0.0563
416.0,-0.0562
415.0,-0.0562
414.0,-0.0562
413.0,-0.0561
412.0,-0.0561
411.0,-0.0561
410.0,-0.0561
409.0,-0.0561
408.0,-0.0561
407.0,-0.0562
406.0,-0.0562
405.0,-0.0562
404.0,-0.0561
403.0,-0.0561
402.0,-0.0561
401.0,-0.0561
400.0,-0.0561
399.0,-0.0560
398.0,-0.0560
397.0,-0.0560
396.0,-0.0559
395.0,-0.0559
394.0,-0.0559
393.0,-0.0558
392.0,-0.0557
391.0,-0.0557
390.0,-0.0557
389.0,-0.0557
388.0,-0.0556
387.0,-0.0555
386.0,-0.0555
385.0,-0.0554
384.0,-0.0553
383.0,-0.0553
382.0,-0.0553
381.0,-0.0552
380.0,-0.0546
379.0,-0.0514
378.0,-0.0468
377.0,-0.0448
376.0,-0.0449
375.0,-0.0450
374.0,-0.0449
373.0,-0.0447
372.0,-0.0445
371.0,-0.0444
370.0,-0.0445
369.0,-0.0444
368.0,-0.0443
367.0,-0.0442
366.0,-0.0441
365.0,-0.0439
364.0,-0.0437
363.0,-0.0437
362.0,-0.0437
361.0,-0.0435
360.0,-0.0433
359.0,-0.0432
358.0,-0.0430
357.0,-0.0430
356.0,-0.0429
355.0,-0.0427
354.0,-0.0426
353.0,-0.0426
352.0,-0.0425
351.0,-0.0425
350.0,-0.0424
349.0,-0.0422
348.0,-0.0422
347.0,-0.0422
346.0,-0.0422
345.0,-0.0420
344.0,-0.0418
343.0,-0.0419
342.0,-0.0420
341.0,-0.0418
340.0,-0.0437
339.0,-0.0489
338.0,-0.0529
337.0,-0.0537
336.0,-0.0537
335.0,-0.0536
334.0,-0.0536
333.0,-0.0535
332.0,-0.0536
331.0,-0.0536
330.0,-0.0535
329.0,-0.0534
328.0,-0.0533
327.0,-0.0533
326.0,-0.0532
325.0,-0.0530
324.0,-0.0527
323.0,-0.0526
322.0,-0.0525
321.0,-0.0523
320.0,-0.0521
319.0,-0.0519
318.0,-0.0517
317.0,-0.0515
316.0,-0.0513
315.0,-0.0511
314.0,-0.0510
313.0,-0.0508
312.0,-0.0507
311.0,-0.0504
310.0,-0.0503
309.0,-0.0500
308.0,-0.0498
307.0,-0.0497
306.0,-0.0496
305.0,-0.0492
304.0,-0.0489
303.0,-0.0486
302.0,-0.0483
301.0,-0.0481
300.0,-0.0478
299.0,-0.0474
298.0,-0.0470
297.0,-0.0466
296.0,-0.0461
295.0,-0.0457
294.0,-0.0453
293.0,-0.0448
292.0,-0.0443
291.0,-0.0438
290.0,-0.0434
289.0,-0.0430
288.0,-0.0424
287.0,-0.0418
286.0,-0.0413
285.0,-0.0409
284.0,-0.0404
283.0,-0.0398
282.0,-0.0394
281.0,-0.0390
280.0,-0.0385
279.0,-0.0380
278.0,-0.0374
277.0,-0.0369
276.0,-0.0363
275.0,-0.0358
274.0,-0.0352
273.0,-0.0346
272.0,-0.0340
271.0,-0.0333
270.0,-0.0326
269.0,-0.0319
268.0,-0.0312
267.0,-0.0304
266.0,-0.0296
265.0,-0.0288
264.0,-0.0279
263.0,-0.0270
262.0,-0.0261
261.0,-0.0252
260.0,-0.0242
259.0,-0.0231
258.0,-0.0220
257.0,-0.0208
256.0,-0.0195
255.0,-0.0182
254.0,-0.0168
253.0,-0.0154
252.0,-0.0139
251.0,-0.0124
250.0,-0.0108
249.0,-0.0091
248.0,-0.0073
247.0,-0.0054
246.0,-0.0035
245.0,-0.0014
244.0,0.0008
243.0,0.0030
242.0,0.0055
241.0,0.0080
240.0,0.0107
239.0,0.0134
238.0,0.0161
237.0,0.0191
236.0,0.0221
235.0,0.0253
234.0,0.0285
233.0,0.0319
232.0,0.0354
231.0,0.0389
230.0,0.0427
229.0,0.0465
228.0,0.0504
227.0,0.0546
226.0,0.0591
225.0,0.0637
224.0,0.0685
223.0,0.0734
222.0,0.0786
221.0,0.0841
220.0,0.0896
219.0,0.0954
218.0,0.1013
217.0,0.1074
216.0,0.1137
215.0,0.1201
214.0,0.1269
213.0,0.1340
212.0,0.1412
211.0,0.1485
210.0,0.1561
209.0,0.1640
208.0,0.1724
207.0,0.1816
206.0,0.1916
205.0,0.2022
204.0,0.2136
203.0,0.2259
202.0,0.2395
201.0,0.2543
200.0,0.2708
199.0,0.2899
198.0,0.3122
197.0,0.3382
196.0,0.3694
195.0,0.4085
194.0,0.4592
193.0,0.5262
192.0,0.6188
191.0,0.7464
190.0,0.8705
