800.0,0.0288
799.0,0.0289
798.0,0.0292
797.0,0.0296
796.0,0.0300
795.0,0.0304
794.0,0.0307
793.0,0.0311
792.0,0.0316
791.0,0.0319
790.0,0.0323
789.0,0.0328
788.0,0.0332
787.0,0.0336
786.0,0.0341
785.0,0.0345
784.0,0.0349
783.0,0.0354
782.0,0.0357
781.0,0.0361
780.0,0.0364
779.0,0.0367
778.0,0.0370
777.0,0.0373
776.0,0.0376
775.0,0.0378
774.0,0.0380
773.0,0.0382
772.0,0.0384
771.0,0.0385
770.0,0.0387
769.0,0.0389
768.0,0.0390
767.0,0.0391
766.0,0.0392
765.0,0.0393
764.0,0.0394
763.0,0.0394
762.0,0.0395
761.0,0.0396
760.0,0.0396
759.0,0.0395
758.0,0.0393
757.0,0.0392
756.0,0.0392
755.0,0.0393
754.0,0.0393
753.0,0.0394
752.0,0.0394
751.0,0.0393
750.0,0.0392
749.0,0.0391
748.0,0.0389
747.0,0.0385
746.0,0.0381
745.0,0.0374
744.0,0.0366
743.0,0.0356
742.0,0.0345
741.0,0.0333
740.0,0.0320
739.0,0.0308
738.0,0.0299
737.0,0.0289
736.0,0.0278
735.0,0.0265
734.0,0.0248
733.0,0.0229
732.0,0.0207
731.0,0.0184
730.0,0.0161
729.0,0.0138
728.0,0.0117
727.0,0.0096
726.0,0.0078
725.0,0.0061
724.0,0.0046
723.0,0.0032
722.0,0.0018
721.0,0.0005
720.0,-0.0007
719.0,-0.0018
718.0,-0.0029
717.0,-0.0040
716.0,-0.0051
715.0,-0.0061
714.0,-0.0071
713.0,-0.0080
712.0,-0.0089
711.0,-0.0096
710.0,-0.0103
709.0,-0.0109
708.0,-0.0115
707.0,-0.0121
706.0,-0.0126
705.0,-0.0131
704.0,-0.0136
703.0,-0.0141
702.0,-0.0145
701.0,-0.0149
700.0,-0.0153
699.0,-0.0157
698.0,-0.0160
697.0,-0.0164
696.0,-0.0167
695.0,-0.0170
694.0,-0.0173
693.0,-0.0175
692.0,-0.0178
691.0,-0.0180
690.0,-0.0182
689.0,-0.0184
688.0,-0.0186
687.0,-0.0188
686.0,-0.0189
685.0,-0.0190
684.0,-0.0192
683.0,-0.0193
682.0,-0.0194
681.0,-0.0196
680.0,-0.0197
679.0,-0.0198
678.0,-0.0199
677.0,-0.0200
676.0,-0.0201
675.0,-0.0202
674.0,-0.0203
673.0,-0.0204
672.0,-0.0204
671.0,-0.0205
670.0,-0.0206
669.0,-0.0206
668.0,-0.0207
667.0,-0.0209
666.0,-0.0209
665.0,-0.0210
664.0,-0.0210
663.0,-0.0212
662.0,-0.0213
661.0,-0.0214
660.0,-0.0215
659.0,-0.0216
658.0,-0.0218
657.0,-0.0219
656.0,-0.0221
655.0,-0.0224
654.0,-0.0226
653.0,-0.0228
652.0,-0.0229
651.0,-0.0230
650.0,-0.0232
649.0,-0.0233
648.0,-0.0233
647.0,-0.0234
646.0,-0.0234
645.0,-0.0235
644.0,-0.0236
643.0,-0.0237
642.0,-0.0238
641.0,-0.0238
640.0,-0.0239
639.0,-0.0239
638.0,-0.0239
637.0,-0.0239
636.0,-0.0240
635.0,-0.0240
634.0,-0.0240
633.0,-0.0241
632.0,-0.0241
631.0,-0.0241
630.0,-0.0242
629.0,-0.0242
628.0,-0.0242
627.0,-0.0242
626.0,-0.0243
625.0,-0.0242
624.0,-0.0243
623.0,-0.0243
622.0,-0.0242
621.0,-0.0242
620.0,-0.0243
619.0,-0.0243
618.0,-0.0243
617.0,-0.0243
616.0,-0.0243
615.0,-0.0243
614.0,-0.0243
613.0,-0.0243
612.0,-0.0243
611.0,-0.0243
610.0,-0.0243
609.0,-0.0243
608.0,-0.0243
607.0,-0.0242
606.0,-0.0241
605.0,-0.0241
604.0,-0.0241
603.0,-0.0241
602.0,-0.0241
601.0,-0.0243
600.0,-0.0245
599.0,-0.0248
598.0,-0.0250
597.0,-0.0252
596.0,-0.0254
595.0,-0.0255
594.0,-0.0256
593.0,-0.0257
592.0,-0.0258
591.0,-0.0260
590.0,-0.0262
589.0,-0.0264
588.0,-0.0267
587.0,-0.0270
586.0,-0.0275
585.0,-0.0280
584.0,-0.0285
583.0,-0.0290
582.0,-0.0295
581.0,-0.0299
580.0,-0.0302
579.0,-0.0304
578.0,-0.0304
577.0,-0.0304
576.0,-0.0302
575.0,-0.0301
574.0,-0.0300
573.0,-0.0300
572.0,-0.0299
571.0,-0.0299
570.0,-0.0299
569.0,-0.0298
568.0,-0.0297
567.0,-0.0297
566.0,-0.0296
565.0,-0.0295
564.0,-0.0294
563.0,-0.0294
562.0,-0.0293
561.0,-0.0292
560.0,-0.0291
559.0,-0.0291
558.0,-0.0290
557.0,-0.0289
556.0,-0.0288
555.0,-0.0286
554.0,-0.0285
553.0,-0.0284
552.0,-0.0283
551.0,-0.0281
550.0,-0.0280
549.0,-0.0279
548.0,-0.0278
547.0,-0.0277
546.0,-0.0276
545.0,-0.0275
544.0,-0.0274
543.0,-0.0273
542.0,-0.0272
541.0,-0.0271
540.0,-0.0270
539.0,-0.0268
538.0,-0.0266
537.0,-0.0265
536.0,-0.0263
535.0,-0.0262
534.0,-0.0260
533.0,-0.0259
532.0,-0.0257
531.0,-0.0256
530.0,-0.0255
529.0,-0.0253
528.0,-0.0251
527.0,-0.0250
526.0,-0.0248
525.0,-0.0247
524.0,-0.0245
523.0,-0.0244
522.0,-0.0241
521.0,-0.0240
520.0,-0.0241
519.0,-0.0242
518.0,-0.0242
517.0,-0.0241
516.0,-0.0241
515.0,-0.0241
514.0,-0.0241
513.0,-0.0241
512.0,-0.0241
511.0,-0.0241
510.0,-0.0241
509.0,-0.0241
508.0,-0.0240
507.0,-0.0240
506.0,-0.0239
505.0,-0.0238
504.0,-0.0237
503.0,-0.0236
502.0,-0.0234
501.0,-0.0232
500.0,-0.0230
499.0,-0.0228
498.0,-0.0226
497.0,-0.0224
496.0,-0.0221
495.0,-0.0219
494.0,-0.0216
493.0,-0.0212
492.0,-0.0209
491.0,-0.0205
490.0,-0.0201
489.0,-0.0196
488.0,-0.0192
487.0,-0.0187
486.0,-0.0182
485.0,-0.0178
484.0,-0.0173
483.0,-0.0170
482.0,-0.0168
481.0,-0.0166
480.0,-0.0164
479.0,-0.0163
478.0,-0.0161
477.0,-0.0159
476.0,-0.0156
475.0,-0.0153
474.0,-0.0150
473.0,-0.0146
472.0,-0.0141
471.0,-0.0137
470.0,-0.0132
469.0,-0.0128
468.0,-0.0123
467.0,-0.0118
466.0,-0.0113
465.0,-0.0108
464.0,-0.0102
463.0,-0.0097
462.0,-0.0091
461.0,-0.0086
460.0,-0.0080
459.0,-0.0075
458.0,-0.0069
457.0,-0.0063
456.0,-0.0057
455.0,-0.0051
454.0,-0.0045
453.0,-0.0039
452.0,-0.0032
451.0,-0.0026
450.0,-0.0020
449.0,-0.0014
448.0,-0.0007
447.0,0.0000
446.0,0.0007
445.0,0.0014
444.0,0.0021
443.0,0.0029
442.0,0.0036
441.0,0.0044
440.0,0.0053
439.0,0.0061
438.0,0.0070
437.0,0.0078
436.0,0.0087
435.0,0.0096
434.0,0.0105
433.0,0.0114
432.0,0.0124
431.0,0.0133
430.0,0.0143
429.0,0.0153
428.0,0.0163
427.0,0.0172
426.0,0.0183
425.0,0.0194
424.0,0.0206
423.0,0.0218
422.0,0.0230
421.0,0.0243
420.0,0.0256
419.0,0.0269
418.0,0.0283
417.0,0.0296
416.0,0.0310
415.0,0.0323
414.0,0.0337
413.0,0.0351
412.0,0.0364
411.0,0.0377
410.0,0.0391
409.0,0.0405
408.0,0.0418
407.0,0.0433
406.0,0.0448
405.0,0.0464
404.0,0.0480
403.0,0.0497
402.0,0.0514
401.0,0.0531
400.0,0.0549
399.0,0.0567
398.0,0.0585
397.0,0.0603
396.0,0.0621
395.0,0.0640
394.0,0.0659
393.0,0.0678
392.0,0.0697
391.0,0.0716
390.0,0.0736
389.0,0.0756
388.0,0.0776
387.0,0.0799
386.0,0.0822
385.0,0.0845
384.0,0.0868
383.0,0.0893
382.0,0.0918
381.0,0.0943
380.0,0.0973
379.0,0.1030
378.0,0.1105
377.0,0.1155
376.0,0.1182
375.0,0.1209
374.0,0.1238
373.0,0.1267
372.0,0.1297
371.0,0.1327
370.0,0.1357
369.0,0.1388
368.0,0.1419
367.0,0.1450
366.0,0.1482
365.0,0.1515
364.0,0.1551
363.0,0.1587
362.0,0.1625
361.0,0.1662
360.0,0.1699
359.0,0.1736
358.0,0.1775
357.0,0.1813
356.0,0.1852
355.0,0.1893
354.0,0.1934
353.0,0.1975
352.0,0.2015
351.0,0.2055
350.0,0.2097
349.0,0.2138
348.0,0.2179
347.0,0.2221
346.0,0.2266
345.0,0.2313
344.0,0.2360
343.0,0.2410
342.0,0.2462
341.0,0.2512
340.0,0.2534
339.0,0.2529
338.0,0.2545
337.0,0.2590
336.0,0.2641
335.0,0.2693
334.0,0.2744
333.0,0.2797
332.0,0.2851
331.0,0.2903
330.0,0.2956
329.0,0.3011
328.0,0.3068
327.0,0.3127
326.0,0.3189
325.0,0.3252
324.0,0.3317
323.0,0.3383
322.0,0.3450
321.0,0.3518
320.0,0.3587
319.0,0.3659
318.0,0.3734
317.0,0.3808
316.0,0.3881
315.0,0.3952
314.0,0.4023
313.0,0.4096
312.0,0.4169
311.0,0.4243
310.0,0.4317
309.0,0.4391
308.0,0.4466
307.0,0.4545
306.0,0.4628
305.0,0.4712
304.0,0.4797
303.0,0.4882
302.0,0.4969
301.0,0.5060
300.0,0.5150
299.0,0.5240
298.0,0.5331
297.0,0.5423
296.0,0.5515
295.0,0.5608
294.0,0.5702
293.0,0.5797
292.0,0.5893
291.0,0.5990
290.0,0.6086
289.0,0.6184
288.0,0.6287
287.0,0.6392
286.0,0.6498
285.0,0.6605
284.0,0.6711
283.0,0.6819
282.0,0.6927
281.0,0.7035
280.0,0.7145
279.0,0.7255
278.0,0.7364
277.0,0.7472
276.0,0.7582
275.0,0.7696
274.0,0.7808
273.0,0.7918
272.0,0.8027
271.0,0.8134
270.0,0.8241
269.0,0.8349
268.0,0.8460
267.0,0.8573
266.0,0.8689
265.0,0.8806
264.0,0.8923
263.0,0.9040
262.0,0.9159
261.0,0.9278
260.0,0.9396
259.0,0.9517
258.0,0.9639
257.0,0.9761
256.0,0.9883
255.0,1.0006
254.0,1.0131
253.0,1.0260
252.0,1.0393
251.0,1.0530
250.0,1.0671
249.0,1.0819
248.0,1.0981
247.0,1.1162
246.0,1.1367
245.0,1.1594
244.0,1.1840
243.0,1.2112
242.0,1.2420
241.0,1.2770
240.0,1.3164
239.0,1.3610
238.0,1.4120
237.0,1.4706
236.0,1.5381
235.0,1.6159
234.0,1.7044
233.0,1.8053
232.0,1.9208
231.0,2.0533
230.0,2.2050
229.0,2.3754
228.0,2.5674
227.0,2.7859
226.0,3.0294
225.0,3.2961
224.0,3.5891
223.0,3.8893
222.0,4.1299
221.0,4.4278
220.0,4.7147
219.0,4.5327
218.0,4.3908
217.0,4.4340
216.0,4.6128
215.0,4.5689
214.0,4.5223
213.0,4.6451
212.0,4.4858
211.0,4.3981
210.0,4.5530
209.0,4.6110
208.0,4.5923
207.0,4.7262
206.0,5.0168
205.0,5.3586
204.0,5.0050
203.0,4.7941
202.0,4.9459
201.0,5.0909
200.0,5.1928
199.0,5.1386
198.0,4.7458
197.0,4.6282
196.0,4.6370
195.0,4.5995
194.0,4.5947
193.0,5.2433
192.0,10.0000
191.0,10.0000
190.0,10.0000
