800.0,0.0178
799.0,0.0178
798.0,0.0180
797.0,0.0184
796.0,0.0188
795.0,0.0192
794.0,0.0196
793.0,0.0200
792.0,0.0204
791.0,0.0208
790.0,0.0212
789.0,0.0217
788.0,0.0221
787.0,0.0225
786.0,0.0230
785.0,0.0234
784.0,0.0237
783.0,0.0241
782.0,0.0246
781.0,0.0250
780.0,0.0253
779.0,0.0257
778.0,0.0260
777.0,0.0263
776.0,0.0265
775.0,0.0268
774.0,0.0271
773.0,0.0273
772.0,0.0274
771.0,0.0276
770.0,0.0278
769.0,0.0279
768.0,0.0280
767.0,0.0281
766.0,0.0282
765.0,0.0282
764.0,0.0283
763.0,0.0283
762.0,0.0283
761.0,0.0284
760.0,0.0284
759.0,0.0285
758.0,0.0284
757.0,0.0283
756.0,0.0283
755.0,0.0283
754.0,0.0283
753.0,0.0283
752.0,0.0282
751.0,0.0281
750.0,0.0279
749.0,0.0278
748.0,0.0276
747.0,0.0272
746.0,0.0266
745.0,0.0259
744.0,0.0250
743.0,0.0240
742.0,0.0229
741.0,0.0217
740.0,0.0204
739.0,0.0192
738.0,0.0182
737.0,0.0173
736.0,0.0162
735.0,0.0148
734.0,0.0132
733.0,0.0112
732.0,0.0090
731.0,0.0067
730.0,0.0045
729.0,0.0023
728.0,0.0001
727.0,-0.0019
726.0,-0.0037
725.0,-0.0053
724.0,-0.0068
723.0,-0.0082
722.0,-0.0095
721.0,-0.0109
720.0,-0.0121
719.0,-0.0133
718.0,-0.0144
717.0,-0.0154
716.0,-0.0165
715.0,-0.0174
714.0,-0.0184
713.0,-0.0193
712.0,-0.0202
711.0,-0.0209
710.0,-0.0215
709.0,-0.0222
708.0,-0.0228
707.0,-0.0234
706.0,-0.0239
705.0,-0.0244
704.0,-0.0249
703.0,-0.0254
702.0,-0.0258
701.0,-0.0262
700.0,-0.0267
699.0,-0.0271
698.0,-0.0274
697.0,-0.0279
696.0,-0.0283
695.0,-0.0287
694.0,-0.0290
693.0,-0.0293
692.0,-0.0295
691.0,-0.0298
690.0,-0.0300
689.0,-0.0303
688.0,-0.0305
687.0,-0.0307
686.0,-0.0309
685.0,-0.0311
684.0,-0.0313
683.0,-0.0314
682.0,-0.0316
681.0,-0.0317
680.0,-0.0318
679.0,-0.0320
678.0,-0.0321
677.0,-0.0322
676.0,-0.0323
675.0,-0.0324
674.0,-0.0325
673.0,-0.0326
672.0,-0.0326
671.0,-0.0327
670.0,-0.0328
669.0,-0.0329
668.0,-0.0330
667.0,-0.0330
666.0,-0.0332
665.0,-0.0333
664.0,-0.0334
663.0,-0.0335
662.0,-0.0336
661.0,-0.0338
660.0,-0.0339
659.0,-0.0341
658.0,-0.0343
657.0,-0.0346
656.0,-0.0348
655.0,-0.0350
654.0,-0.0353
653.0,-0.0355
652.0,-0.0356
651.0,-0.0358
650.0,-0.0359
649.0,-0.0360
648.0,-0.0361
647.0,-0.0362
646.0,-0.0363
645.0,-0.0364
644.0,-0.0364
643.0,-0.0365
642.0,-0.0366
641.0,-0.0367
640.0,-0.0368
639.0,-0.0369
638.0,-0.0369
637.0,-0.0370
636.0,-0.0371
635.0,-0.0372
634.0,-0.0372
633.0,-0.0373
632.0,-0.0374
631.0,-0.0375
630.0,-0.0375
629.0,-0.0376
628.0,-0.0376
627.0,-0.0377
626.0,-0.0377
625.0,-0.0377
624.0,-0.0377
623.0,-0.0377
622.0,-0.0378
621.0,-0.0378
620.0,-0.0379
619.0,-0.0379
618.0,-0.0379
617.0,-0.0379
616.0,-0.0379
615.0,-0.0379
614.0,-0.0380
613.0,-0.0380
612.0,-0.0379
611.0,-0.0379
610.0,-0.0379
609.0,-0.0379
608.0,-0.0379
607.0,-0.0379
606.0,-0.0378
605.0,-0.0378
604.0,-0.0378
603.0,-0.0378
602.0,-0.0378
601.0,-0.0379
600.0,-0.0383
599.0,-0.0386
598.0,-0.0389
597.0,-0.0391
596.0,-0.0393
595.0,-0.0395
594.0,-0.0397
593.0,-0.0398
592.0,-0.0399
591.0,-0.0401
590.0,-0.0403
589.0,-0.0405
588.0,-0.0408
587.0,-0.0412
586.0,-0.0417
585.0,-0.0423
584.0,-0.0428
583.0,-0.0434
582.0,-0.0439
581.0,-0.0443
580.0,-0.0446
579.0,-0.0448
578.0,-0.0448
577.0,-0.0447
576.0,-0.0445
575.0,-0.0444
574.0,-0.0444
573.0,-0.0443
572.0,-0.0443
571.0,-0.0443
570.0,-0.0442
569.0,-0.0442
568.0,-0.0442
567.0,-0.0441
566.0,-0.0441
565.0,-0.0440
564.0,-0.0440
563.0,-0.0439
562.0,-0.0439
561.0,-0.0438
560.0,-0.0437
559.0,-0.0437
558.0,-0.0436
557.0,-0.0435
556.0,-0.0434
555.0,-0.0434
554.0,-0.0433
553.0,-0.0433
552.0,-0.0432
551.0,-0.0432
550.0,-0.0431
549.0,-0.0430
548.0,-0.0430
547.0,-0.0429
546.0,-0.0428
545.0,-0.0427
544.0,-0.0427
543.0,-0.0426
542.0,-0.0425
541.0,-0.0424
540.0,-0.0423
539.0,-0.0422
538.0,-0.0421
537.0,-0.0420
536.0,-0.0419
535.0,-0.0418
534.0,-0.0417
533.0,-0.0416
532.0,-0.0415
531.0,-0.0414
530.0,-0.0414
529.0,-0.0413
528.0,-0.0412
527.0,-0.0412
526.0,-0.0411
525.0,-0.0410
524.0,-0.0410
523.0,-0.0410
522.0,-0.0410
521.0,-0.0410
520.0,-0.0410
519.0,-0.0410
518.0,-0.0410
517.0,-0.0411
516.0,-0.0412
515.0,-0.0412
514.0,-0.0412
513.0,-0.0412
512.0,-0.0413
511.0,-0.0413
510.0,-0.0414
509.0,-0.0414
508.0,-0.0414
507.0,-0.0414
506.0,-0.0414
505.0,-0.0414
504.0,-0.0413
503.0,-0.0412
502.0,-0.0412
501.0,-0.0411
500.0,-0.0410
499.0,-0.0409
498.0,-0.0407
497.0,-0.0405
496.0,-0.0403
495.0,-0.0402
494.0,-0.0400
493.0,-0.0398
492.0,-0.0395
491.0,-0.0392
490.0,-0.0389
489.0,-0.0385
488.0,-0.0382
487.0,-0.0378
486.0,-0.0374
485.0,-0.0370
484.0,-0.0366
483.0,-0.0364
482.0,-0.0362
481.0,-0.0361
480.0,-0.0360
479.0,-0.0358
478.0,-0.0358
477.0,-0.0357
476.0,-0.0355
475.0,-0.0353
474.0,-0.0350
473.0,-0.0347
472.0,-0.0344
471.0,-0.0340
470.0,-0.0336
469.0,-0.0333
468.0,-0.0330
467.0,-0.0326
466.0,-0.0322
465.0,-0.0318
464.0,-0.0314
463.0,-0.0310
462.0,-0.0306
461.0,-0.0302
460.0,-0.0298
459.0,-0.0294
458.0,-0.0289
457.0,-0.0285
456.0,-0.0280
455.0,-0.0275
454.0,-0.0271
453.0,-0.0267
452.0,-0.0263
451.0,-0.0258
450.0,-0.0253
449.0,-0.0249
448.0,-0.0243
447.0,-0.0238
446.0,-0.0232
445.0,-0.0227
444.0,-0.0221
443.0,-0.0215
442.0,-0.0209
441.0,-0.0203
440.0,-0.0197
439.0,-0.0190
438.0,-0.0184
437.0,-0.0177
436.0,-0.0170
435.0,-0.0162
434.0,-0.0155
433.0,-0.0148
432.0,-0.0141
431.0,-0.0133
430.0,-0.0126
429.0,-0.0118
428.0,-0.0110
427.0,-0.0102
426.0,-0.0094
425.0,-0.0085
424.0,-0.0076
423.0,-0.0066
422.0,-0.0057
421.0,-0.0047
420.0,-0.0037
419.0,-0.0027
418.0,-0.0017
417.0,-0.0006
416.0,0.0005
415.0,0.0016
414.0,0.0027
413.0,0.0038
412.0,0.0049
411.0,0.0060
410.0,0.0070
409.0,0.0080
408.0,0.0090
407.0,0.0102
406.0,0.0114
405.0,0.0127
404.0,0.0139
403.0,0.0152
402.0,0.0167
401.0,0.0181
400.0,0.0195
399.0,0.0209
398.0,0.0224
397.0,0.0240
396.0,0.0255
395.0,0.0270
394.0,0.0286
393.0,0.0302
392.0,0.0318
391.0,0.0334
390.0,0.0351
389.0,0.0367
388.0,0.0384
387.0,0.0402
386.0,0.0422
385.0,0.0442
384.0,0.0462
383.0,0.0482
382.0,0.0502
381.0,0.0523
380.0,0.0548
379.0,0.0599
378.0,0.0669
377.0,0.0714
376.0,0.0738
375.0,0.0761
374.0,0.0784
373.0,0.0808
372.0,0.0833
371.0,0.0857
370.0,0.0881
369.0,0.0907
368.0,0.0933
367.0,0.0960
366.0,0.0988
365.0,0.1016
364.0,0.1045
363.0,0.1075
362.0,0.1106
361.0,0.1138
360.0,0.1170
359.0,0.1202
358.0,0.1236
357.0,0.1269
356.0,0.1301
355.0,0.1336
354.0,0.1370
353.0,0.1403
352.0,0.1437
351.0,0.1471
350.0,0.1505
349.0,0.1539
348.0,0.1573
347.0,0.1610
346.0,0.1649
345.0,0.1688
344.0,0.1728
343.0,0.1767
342.0,0.1805
341.0,0.1844
340.0,0.1864
339.0,0.1857
338.0,0.1865
337.0,0.1902
336.0,0.1945
335.0,0.1989
334.0,0.2034
333.0,0.2079
332.0,0.2124
331.0,0.2170
330.0,0.2217
329.0,0.2266
328.0,0.2316
327.0,0.2367
326.0,0.2420
325.0,0.2475
324.0,0.2532
323.0,0.2589
322.0,0.2649
321.0,0.2710
320.0,0.2770
319.0,0.2833
318.0,0.2899
317.0,0.2963
316.0,0.3026
315.0,0.3090
314.0,0.3155
313.0,0.3219
312.0,0.3283
311.0,0.3347
310.0,0.3412
309.0,0.3478
308.0,0.3545
307.0,0.3613
306.0,0.3685
305.0,0.3759
304.0,0.3834
303.0,0.3910
302.0,0.3989
301.0,0.4070
300.0,0.4150
299.0,0.4230
298.0,0.4311
297.0,0.4393
296.0,0.4475
295.0,0.4558
294.0,0.4642
293.0,0.4727
292.0,0.4813
291.0,0.4899
290.0,0.4984
289.0,0.5071
288.0,0.5160
287.0,0.5254
286.0,0.5351
285.0,0.5449
284.0,0.5545
283.0,0.5641
282.0,0.5738
281.0,0.5835
280.0,0.5932
279.0,0.6028
278.0,0.6125
277.0,0.6222
276.0,0.6320
275.0,0.6419
274.0,0.6517
273.0,0.6614
272.0,0.6711
271.0,0.6807
270.0,0.6901
269.0,0.6996
268.0,0.7093
267.0,0.7193
266.0,0.7295
265.0,0.7399
264.0,0.7502
263.0,0.7604
262.0,0.7707
261.0,0.7813
260.0,0.7919
259.0,0.8025
258.0,0.8134
257.0,0.8242
256.0,0.8351
255.0,0.8461
254.0,0.8573
253.0,0.8689
252.0,0.8808
251.0,0.8933
250.0,0.9063
249.0,0.9202
248.0,0.9353
247.0,0.9522
246.0,0.9710
245.0,0.9920
244.0,1.0153
243.0,1.0417
242.0,1.0726
241.0,1.1085
240.0,1.1488
239.0,1.1942
238.0,1.2467
237.0,1.3080
236.0,1.3792
235.0,1.4612
234.0,1.5552
233.0,1.6628
232.0,1.7861
231.0,1.9280
230.0,2.0917
229.0,2.2754
228.0,2.4798
227.0,2.7112
226.0,2.9692
225.0,3.2484
224.0,3.5246
223.0,3.7582
222.0,3.9375
221.0,4.0159
220.0,4.0718
219.0,4.1498
218.0,4.1129
217.0,4.1092
216.0,4.2082
215.0,4.2261
214.0,4.1402
213.0,4.1228
212.0,4.1975
211.0,4.2039
210.0,4.1751
209.0,4.2400
208.0,4.3108
207.0,4.2772
206.0,4.1713
205.0,4.1622
204.0,4.2781
203.0,4.2789
202.0,4.1721
201.0,4.1050
200.0,4.0948
199.0,4.1542
198.0,4.2302
197.0,4.2946
196.0,4.3353
195.0,4.3152
194.0,4.3580
193.0,4.4168
192.0,4.2016
191.0,4.0926
190.0,4.1807
